case index 9 = {
num freq, 1701
num column, 38
Waveln,  combin,  H2O,  umix,  O3,  trace,  N2,  H2Ocnt,  molec,  aercld,  HNO3,  aercld,  CO2,  CO,  CH4,  N2O,  O2,  NH3,  NO,  NO2,  SO2,  cloud,  F11,  F12,  CCl3F,  CF4,  F22,  F113,  F114,  R115,  ClONO2,  HNO4,  CHCl2F,  CCl4,  N2O5,  H2-H2,  H2-HE,  H2-CH4,  CH4-CH4
  [nm],  trans,  trans,  trans,  trans,  trans,  trans,  trans,  scat,  trans,  trans,  abtrns,  trans,  trans,  trans,  trans,  trans,  trans,  trans,  trans,  trans,  trans,  trans,  trans,  trans,  trans,  trans,  trans,  trans,  trans,  trans,  trans,  trans,  trans,  trans,  trans,  trans,  trans,  trans
300, 4.57656e-10, 1, 1, 3.58439e-07, 0.985911, 1, 1, 0.00111618, 1, 1, 1, 1, 1, 1, 1, 1, 1, 1, 0.996195, 0.989677, 1, 1, 1, 1, 1, 1, 1, 1, 1, 1, 1, 1, 1, 1, 1, 1, 1, 1
301, 3.09063e-09, 1, 1, 2.20232e-06, 0.987215, 1, 1, 0.00122963, 1, 1, 1, 1, 1, 1, 1, 1, 1, 1, 0.99608, 0.991099, 1, 1, 1, 1, 1, 1, 1, 1, 1, 1, 1, 1, 1, 1, 1, 1, 1, 1
302, 1.48736e-08, 1, 1, 9.84481e-06, 0.987655, 1, 1, 0.00135226, 1, 1, 1, 1, 1, 1, 1, 1, 1, 1, 0.995841, 0.99178, 1, 1, 1, 1, 1, 1, 1, 1, 1, 1, 1, 1, 1, 1, 1, 1, 1, 1
303, 6.47558e-08, 1, 1, 3.9239e-05, 0.988309, 1, 1, 0.00148458, 1, 1, 1, 1, 1, 1, 1, 1, 1, 1, 0.995569, 0.992708, 1, 1, 1, 1, 1, 1, 1, 1, 1, 1, 1, 1, 1, 1, 1, 1, 1, 1
304, 2.38894e-07, 1, 1, 0.000133787, 0.988564, 1, 1, 0.00162713, 1, 1, 1, 1, 1, 1, 1, 1, 1, 1, 0.99539, 0.993143, 1, 1, 1, 1, 1, 1, 1, 1, 1, 1, 1, 1, 1, 1, 1, 1, 1, 1
305, 7.29244e-07, 1, 1, 0.000378429, 0.989127, 1, 1, 0.00178045, 1, 1, 1, 1, 1, 1, 1, 1, 1, 1, 0.995288, 0.993809, 1, 1, 1, 1, 1, 1, 1, 1, 1, 1, 1, 1, 1, 1, 1, 1, 1, 1
306, 2.14205e-06, 1, 1, 0.00102172, 0.989346, 1, 1, 0.00194511, 1, 1, 1, 1, 1, 1, 1, 1, 1, 1, 0.99521, 0.994107, 1, 1, 1, 1, 1, 1, 1, 1, 1, 1, 1, 1, 1, 1, 1, 1, 1, 1
307, 5.14475e-06, 1, 1, 0.00228761, 0.989669, 1, 1, 0.00212168, 1, 1, 1, 1, 1, 1, 1, 1, 1, 1, 0.995083, 0.994559, 1, 1, 1, 1, 1, 1, 1, 1, 1, 1, 1, 1, 1, 1, 1, 1, 1, 1
308, 1.19639e-05, 1, 1, 0.00489993, 0.98995, 1, 1, 0.00231074, 1, 1, 1, 1, 1, 1, 1, 1, 1, 1, 0.994906, 0.995019, 1, 1, 1, 1, 1, 1, 1, 1, 1, 1, 1, 1, 1, 1, 1, 1, 1, 1
309, 2.48438e-05, 1, 1, 0.00943687, 0.990184, 1, 1, 0.00251288, 1, 1, 1, 1, 1, 1, 1, 1, 1, 1, 0.994663, 0.995498, 1, 1, 1, 1, 1, 1, 1, 1, 1, 1, 1, 1, 1, 1, 1, 1, 1, 1
310, 4.70974e-05, 1, 1, 0.0166314, 0.990447, 1, 1, 0.0027287, 1, 1, 1, 1, 1, 1, 1, 1, 1, 1, 0.994443, 0.995982, 1, 1, 1, 1, 1, 1, 1, 1, 1, 1, 1, 1, 1, 1, 1, 1, 1, 1
311, 8.59148e-05, 1, 1, 0.0280329, 0.990728, 1, 1, 0.00295881, 1, 1, 1, 1, 1, 1, 1, 1, 1, 1, 0.994236, 0.996473, 1, 1, 1, 1, 1, 1, 1, 1, 1, 1, 1, 1, 1, 1, 1, 1, 1, 1
312, 0.000143455, 1, 1, 0.0435731, 0.991119, 1, 1, 0.00320381, 1, 1, 1, 1, 1, 1, 1, 1, 1, 1, 0.994096, 0.997006, 1, 1, 1, 1, 1, 1, 1, 1, 1, 1, 1, 1, 1, 1, 1, 1, 1, 1
313, 0.00023458, 1, 1, 0.0660575, 0.991367, 1, 1, 0.00346435, 1, 1, 1, 1, 1, 1, 1, 1, 1, 1, 0.993955, 0.997396, 1, 1, 1, 1, 1, 1, 1, 1, 1, 1, 1, 1, 1, 1, 1, 1, 1, 1
314, 0.000352462, 1, 1, 0.092467, 0.991629, 1, 1, 0.00374103, 1, 1, 1, 1, 1, 1, 1, 1, 1, 1, 0.993814, 0.997801, 1, 1, 1, 1, 1, 1, 1, 1, 1, 1, 1, 1, 1, 1, 1, 1, 1, 1
315, 0.000520207, 1, 1, 0.12692, 0.991714, 1, 1, 0.00403449, 1, 1, 1, 1, 1, 1, 1, 1, 1, 1, 0.993623, 0.998079, 1, 1, 1, 1, 1, 1, 1, 1, 1, 1, 1, 1, 1, 1, 1, 1, 1, 1
316, 0.000713091, 1, 1, 0.16238, 0.991749, 1, 1, 0.00434536, 1, 1, 1, 1, 1, 1, 1, 1, 1, 1, 0.993391, 0.998347, 1, 1, 1, 1, 1, 1, 1, 1, 1, 1, 1, 1, 1, 1, 1, 1, 1, 1
317, 0.000984509, 1, 1, 0.208294, 0.991697, 1, 1, 0.00467428, 1, 1, 1, 1, 1, 1, 1, 1, 1, 1, 0.993122, 0.998565, 1, 1, 1, 1, 1, 1, 1, 1, 1, 1, 1, 1, 1, 1, 1, 1, 1, 1
318, 0.001297, 1, 1, 0.256271, 0.991709, 1, 1, 0.00502187, 1, 1, 1, 1, 1, 1, 1, 1, 1, 1, 0.992873, 0.99883, 1, 1, 1, 1, 1, 1, 1, 1, 1, 1, 1, 1, 1, 1, 1, 1, 1, 1
319, 0.00169388, 1, 1, 0.312663, 0.991769, 1, 1, 0.00538878, 1, 1, 1, 1, 1, 1, 1, 1, 1, 1, 0.992687, 0.999075, 1, 1, 1, 1, 1, 1, 1, 1, 1, 1, 1, 1, 1, 1, 1, 1, 1, 1
320, 0.00213159, 1, 1, 0.367426, 0.991816, 1, 1, 0.00577563, 1, 1, 1, 1, 1, 1, 1, 1, 1, 1, 0.992543, 0.999267, 1, 1, 1, 1, 1, 1, 1, 1, 1, 1, 1, 1, 1, 1, 1, 1, 1, 1
321, 0.00260615, 1, 1, 0.421597, 0.991845, 1, 1, 0.00618307, 1, 1, 1, 1, 1, 1, 1, 1, 1, 1, 0.992413, 0.999428, 1, 1, 1, 1, 1, 1, 1, 1, 1, 1, 1, 1, 1, 1, 1, 1, 1, 1
322, 0.00310974, 1, 1, 0.470386, 0.991821, 1, 1, 0.00661171, 1, 1, 1, 1, 1, 1, 1, 1, 1, 1, 0.992247, 0.99957, 1, 1, 1, 1, 1, 1, 1, 1, 1, 1, 1, 1, 1, 1, 1, 1, 1, 1
323, 0.00369862, 1, 1, 0.523919, 0.99176, 1, 1, 0.00706218, 1, 1, 1, 1, 1, 1, 1, 1, 1, 1, 0.99207, 0.999688, 1, 1, 1, 1, 1, 1, 1, 1, 1, 1, 1, 1, 1, 1, 1, 1, 1, 1
324, 0.00431889, 1, 1, 0.574821, 0.991664, 1, 1, 0.0075351, 1, 1, 1, 1, 1, 1, 1, 1, 1, 1, 0.991889, 0.999772, 1, 1, 1, 1, 1, 1, 1, 1, 1, 1, 1, 1, 1, 1, 1, 1, 1, 1
325, 0.00494199, 1, 1, 0.617779, 0.991531, 1, 1, 0.00803108, 1, 1, 1, 1, 1, 1, 1, 1, 1, 1, 0.9917, 0.999831, 1, 1, 1, 1, 1, 1, 1, 1, 1, 1, 1, 1, 1, 1, 1, 1, 1, 1
326, 0.00562995, 1, 1, 0.660965, 0.991402, 1, 1, 0.00855071, 1, 1, 1, 1, 1, 1, 1, 1, 1, 1, 0.991528, 0.999873, 1, 1, 1, 1, 1, 1, 1, 1, 1, 1, 1, 1, 1, 1, 1, 1, 1, 1
327, 0.00632662, 1, 1, 0.699591, 0.991292, 1, 1, 0.00909461, 1, 1, 1, 1, 1, 1, 1, 1, 1, 1, 0.991383, 0.999908, 1, 1, 1, 1, 1, 1, 1, 1, 1, 1, 1, 1, 1, 1, 1, 1, 1, 1
328, 0.00705373, 1, 1, 0.734112, 0.991143, 1, 1, 0.00966335, 1, 1, 1, 1, 1, 1, 1, 1, 1, 1, 0.991209, 0.999933, 1, 1, 1, 1, 1, 1, 1, 1, 1, 1, 1, 1, 1, 1, 1, 1, 1, 1
329, 0.00788161, 1, 1, 0.772598, 0.990972, 1, 1, 0.0102575, 1, 1, 1, 1, 1, 1, 1, 1, 1, 1, 0.991023, 0.999949, 1, 1, 1, 1, 1, 1, 1, 1, 1, 1, 1, 1, 1, 1, 1, 1, 1, 1
330, 0.00864441, 1, 1, 0.801016, 0.990839, 1, 1, 0.0108777, 1, 1, 1, 1, 1, 1, 1, 1, 1, 1, 0.990875, 0.999964, 1, 1, 1, 1, 1, 1, 1, 1, 1, 1, 1, 1, 1, 1, 1, 1, 1, 1
331, 0.009382, 1, 1, 0.82074, 0.990612, 1, 1, 0.0115244, 1, 1, 1, 1, 1, 1, 1, 1, 1, 1, 0.990637, 0.999976, 1, 1, 1, 1, 1, 1, 1, 1, 1, 1, 1, 1, 1, 1, 1, 1, 1, 1
332, 0.0102204, 1, 1, 0.844033, 0.990315, 1, 1, 0.0121982, 1, 1, 1, 1, 1, 1, 1, 1, 1, 1, 0.99033, 0.999985, 1, 1, 1, 1, 1, 1, 1, 1, 1, 1, 1, 1, 1, 1, 1, 1, 1, 1
333, 0.0111262, 1, 0.999958, 0.87014, 0.99002, 1, 1, 0.0128995, 1, 1, 1, 1, 1, 1, 1, 0.999958, 1, 1, 0.990032, 0.999988, 1, 1, 1, 1, 1, 1, 1, 1, 1, 1, 1, 1, 1, 1, 1, 1, 1, 1
334, 0.012012, 1, 0.999684, 0.889513, 0.989995, 1, 1, 0.0136291, 1, 1, 1, 1, 1, 1, 1, 0.999684, 1, 1, 0.990004, 0.999991, 1, 1, 1, 1, 1, 1, 1, 1, 1, 1, 1, 1, 1, 1, 1, 1, 1, 1
335, 0.0129798, 1, 0.999139, 0.91068, 0.989938, 1, 1, 0.0143872, 1, 1, 1, 1, 1, 1, 1, 0.999139, 1, 1, 0.989945, 0.999993, 1, 1, 1, 1, 1, 1, 1, 1, 1, 1, 1, 1, 1, 1, 1, 1, 1, 1
336, 0.0138576, 1, 0.998518, 0.923793, 0.989881, 1, 1, 0.0151744, 1, 1, 1, 1, 1, 1, 1, 0.998518, 1, 1, 0.989885, 0.999996, 1, 1, 1, 1, 1, 1, 1, 1, 1, 1, 1, 1, 1, 1, 1, 1, 1, 1
337, 0.0146372, 1, 0.998067, 0.926824, 0.989655, 1, 1, 0.0159912, 1, 1, 1, 1, 1, 1, 1, 0.998067, 1, 1, 0.989657, 0.999998, 1, 1, 1, 1, 1, 1, 1, 1, 1, 1, 1, 1, 1, 1, 1, 1, 1, 1
338, 0.0155408, 1, 0.997734, 0.934154, 0.989305, 1, 1, 0.016838, 1, 1, 1, 1, 1, 1, 1, 0.997734, 1, 1, 0.989306, 0.999999, 1, 1, 1, 1, 1, 1, 1, 1, 1, 1, 1, 1, 1, 1, 1, 1, 1, 1
339, 0.0165777, 1, 0.997216, 0.948287, 0.988829, 1, 1, 0.0177153, 1, 1, 1, 1, 1, 1, 1, 0.997216, 1, 1, 0.988829, 1, 1, 1, 1, 1, 1, 1, 1, 1, 1, 1, 1, 1, 1, 1, 1, 1, 1, 1
340, 0.0175853, 1, 0.996279, 0.958687, 0.988485, 1, 1, 0.0186234, 1, 1, 1, 1, 1, 1, 1, 0.996279, 1, 1, 0.988485, 1, 1, 1, 1, 1, 1, 1, 1, 1, 1, 1, 1, 1, 1, 1, 1, 1, 1, 1
341, 0.0185898, 1, 0.994846, 0.965948, 0.988426, 1, 1, 0.0195627, 1, 1, 1, 1, 1, 1, 1, 0.994846, 1, 1, 0.988426, 1, 1, 1, 1, 1, 1, 1, 1, 1, 1, 1, 1, 1, 1, 1, 1, 1, 1, 1
342, 0.0196277, 1, 0.993211, 0.973187, 0.988624, 1, 1, 0.0205337, 1, 1, 1, 1, 1, 1, 1, 0.993211, 1, 1, 0.988624, 1, 1, 1, 1, 1, 1, 1, 1, 1, 1, 1, 1, 1, 1, 1, 1, 1, 1, 1
343, 0.0206081, 1, 0.992104, 0.975679, 0.988779, 1, 1, 0.0215367, 1, 1, 1, 1, 1, 1, 1, 0.992104, 1, 1, 0.98878, 1, 1, 1, 1, 1, 1, 1, 1, 1, 1, 1, 1, 1, 1, 1, 1, 1, 1, 1
344, 0.0215585, 1, 0.992305, 0.973564, 0.988625, 1, 1, 0.0225721, 1, 1, 1, 1, 1, 1, 1, 0.992305, 1, 1, 0.988625, 1, 1, 1, 1, 1, 1, 1, 1, 1, 1, 1, 1, 1, 1, 1, 1, 1, 1, 1
345, 0.0227093, 1, 0.993885, 0.977569, 0.988181, 1, 1, 0.02364, 1, 1, 1, 1, 1, 1, 1, 0.993885, 1, 1, 0.988182, 0.999999, 1, 1, 1, 1, 1, 1, 1, 1, 1, 1, 1, 1, 1, 1, 1, 1, 1, 1
346, 0.0239791, 1, 0.995951, 0.984792, 0.98768, 1, 1, 0.0247409, 1, 1, 1, 1, 1, 1, 1, 0.995951, 1, 1, 0.987681, 0.999999, 1, 1, 1, 1, 1, 1, 1, 1, 1, 1, 1, 1, 1, 1, 1, 1, 1, 1
347, 0.0252476, 1, 0.997544, 0.990691, 0.987176, 1, 1, 0.025875, 1, 1, 1, 1, 1, 1, 1, 0.997544, 1, 1, 0.987177, 1, 1, 1, 1, 1, 1, 1, 1, 1, 1, 1, 1, 1, 1, 1, 1, 1, 1, 1
348, 0.026466, 1, 0.998334, 0.993161, 0.986942, 1, 1, 0.0270425, 1, 1, 1, 1, 1, 1, 1, 0.998334, 1, 1, 0.986943, 0.999999, 1, 1, 1, 1, 1, 1, 1, 1, 1, 1, 1, 1, 1, 1, 1, 1, 1, 1
349, 0.0277078, 1, 0.998541, 0.995165, 0.987116, 1, 1, 0.0282438, 1, 1, 1, 1, 1, 1, 1, 0.998541, 1, 1, 0.987117, 0.999999, 1, 1, 1, 1, 1, 1, 1, 1, 1, 1, 1, 1, 1, 1, 1, 1, 1, 1
350, 0.0289391, 1, 0.99843, 0.995836, 0.987367, 1, 1, 0.0294789, 1, 1, 1, 1, 1, 1, 1, 0.99843, 1, 1, 0.987368, 0.999999, 1, 1, 1, 1, 1, 1, 1, 1, 1, 1, 1, 1, 1, 1, 1, 1, 1, 1
351, 0.0301598, 1, 0.998134, 0.995225, 0.987489, 1, 1, 0.0307482, 1, 1, 1, 1, 1, 1, 1, 0.998134, 1, 1, 0.987491, 0.999999, 1, 1, 1, 1, 1, 1, 1, 1, 1, 1, 1, 1, 1, 1, 1, 1, 1, 1
352, 0.0314121, 1, 0.997682, 0.994857, 0.987405, 1, 1, 0.0320517, 1, 1, 1, 1, 1, 1, 1, 0.997682, 1, 1, 0.987406, 0.999999, 1, 1, 1, 1, 1, 1, 1, 1, 1, 1, 1, 1, 1, 1, 1, 1, 1, 1
353, 0.0327342, 1, 0.997029, 0.996184, 0.987033, 1, 1, 0.0333896, 1, 1, 1, 1, 1, 1, 1, 0.997029, 1, 1, 0.987034, 0.999999, 1, 1, 1, 1, 1, 1, 1, 1, 1, 1, 1, 1, 1, 1, 1, 1, 1, 1
354, 0.0340796, 1, 0.996049, 0.997814, 0.986434, 1, 1, 0.0347621, 1, 1, 1, 1, 1, 1, 1, 0.996049, 1, 1, 0.986435, 0.999998, 1, 1, 1, 1, 1, 1, 1, 1, 1, 1, 1, 1, 1, 1, 1, 1, 1, 1
355, 0.0354112, 1, 0.994474, 0.998506, 0.986049, 1, 1, 0.0361692, 1, 1, 1, 1, 1, 1, 1, 0.994474, 1, 1, 0.986051, 0.999999, 1, 1, 1, 1, 1, 1, 1, 1, 1, 1, 1, 1, 1, 1, 1, 1, 1, 1
356, 0.0367108, 1, 0.99187, 0.998359, 0.985841, 1, 1, 0.0376111, 1, 1, 1, 1, 1, 1, 1, 0.99187, 1, 1, 0.985842, 0.999999, 1, 1, 1, 1, 1, 1, 1, 1, 1, 1, 1, 1, 1, 1, 1, 1, 1, 1
357, 0.0379824, 1, 0.987858, 0.998147, 0.985706, 1, 1, 0.0390878, 1, 1, 1, 1, 1, 1, 1, 0.987858, 1, 1, 0.985707, 0.999998, 1, 1, 1, 1, 1, 1, 1, 1, 1, 1, 1, 1, 1, 1, 1, 1, 1, 1
358, 0.0392486, 1, 0.982545, 0.998206, 0.985901, 1, 1, 0.0405993, 1, 1, 1, 1, 1, 1, 1, 0.982545, 1, 1, 0.985904, 0.999998, 1, 1, 1, 1, 1, 1, 1, 1, 1, 1, 1, 1, 1, 1, 1, 1, 1, 1
359, 0.0405368, 1, 0.977046, 0.998369, 0.986235, 1, 1, 0.0421457, 1, 1, 1, 1, 1, 1, 1, 0.977046, 1, 1, 0.986237, 0.999998, 1, 1, 1, 1, 1, 1, 1, 1, 1, 1, 1, 1, 1, 1, 1, 1, 1, 1
360, 0.0419274, 1, 0.973744, 0.998503, 0.986254, 1, 1, 0.0437269, 1, 1, 1, 1, 1, 1, 1, 0.973744, 1, 1, 0.986256, 0.999998, 1, 1, 1, 1, 1, 1, 1, 1, 1, 1, 1, 1, 1, 1, 1, 1, 1, 1
361, 0.0435332, 1, 0.97494, 0.998701, 0.985882, 1, 1, 0.045343, 1, 1, 1, 1, 1, 1, 1, 0.97494, 1, 1, 0.985884, 0.999997, 1, 1, 1, 1, 1, 1, 1, 1, 1, 1, 1, 1, 1, 1, 1, 1, 1, 1
362, 0.0453965, 1, 0.980659, 0.999024, 0.985697, 1, 1, 0.0469939, 1, 1, 1, 1, 1, 1, 1, 0.980659, 1, 1, 0.985699, 0.999998, 1, 1, 1, 1, 1, 1, 1, 1, 1, 1, 1, 1, 1, 1, 1, 1, 1, 1
363, 0.0473784, 1, 0.987969, 0.999303, 0.985529, 1, 1, 0.0486795, 1, 1, 1, 1, 1, 1, 1, 0.987969, 1, 1, 0.985531, 0.999997, 1, 1, 1, 1, 1, 1, 1, 1, 1, 1, 1, 1, 1, 1, 1, 1, 1, 1
364, 0.0493227, 1, 0.99376, 0.999481, 0.985139, 1, 1, 0.0503998, 1, 1, 1, 1, 1, 1, 1, 0.99376, 1, 1, 0.985142, 0.999998, 1, 1, 1, 1, 1, 1, 1, 1, 1, 1, 1, 1, 1, 1, 1, 1, 1, 1
365, 0.0511901, 1, 0.997047, 0.999618, 0.984714, 1, 1, 0.0521547, 1, 1, 1, 1, 1, 1, 1, 0.997047, 1, 1, 0.984716, 0.999998, 1, 1, 1, 1, 1, 1, 1, 1, 1, 1, 1, 1, 1, 1, 1, 1, 1, 1
366, 0.0530354, 1, 0.99859, 0.99981, 0.984681, 1, 1, 0.053944, 1, 1, 1, 1, 1, 1, 1, 0.99859, 1, 1, 0.984682, 0.999999, 1, 1, 1, 1, 1, 1, 1, 1, 1, 1, 1, 1, 1, 1, 1, 1, 1, 1
367, 0.0548806, 1, 0.999252, 0.99995, 0.984854, 1, 1, 0.0557677, 1, 1, 1, 1, 1, 1, 1, 0.999252, 1, 1, 0.984855, 0.999999, 1, 1, 1, 1, 1, 1, 1, 1, 1, 1, 1, 1, 1, 1, 1, 1, 1, 1
368, 0.0567322, 1, 0.999497, 1, 0.984992, 1, 1, 0.0576255, 1, 1, 1, 1, 1, 1, 1, 0.999497, 1, 1, 0.984993, 0.999998, 1, 1, 1, 1, 1, 1, 1, 1, 1, 1, 1, 1, 1, 1, 1, 1, 1, 1
369, 0.0586028, 1, 0.999562, 1, 0.98506, 1, 1, 0.0595174, 1, 1, 1, 1, 1, 1, 1, 0.999562, 1, 1, 0.985063, 0.999997, 1, 1, 1, 1, 1, 1, 1, 1, 1, 1, 1, 1, 1, 1, 1, 1, 1, 1
370, 0.060494, 1, 0.999567, 1, 0.98499, 1, 1, 0.061443, 1, 1, 1, 1, 1, 1, 1, 0.999567, 1, 1, 0.984992, 0.999997, 1, 1, 1, 1, 1, 1, 1, 1, 1, 1, 1, 1, 1, 1, 1, 1, 1, 1
371, 0.062401, 1, 0.999567, 1, 0.984654, 1, 1, 0.0634022, 1, 1, 1, 1, 1, 1, 1, 0.999567, 1, 1, 0.984656, 0.999998, 1, 1, 1, 1, 1, 1, 1, 1, 1, 1, 1, 1, 1, 1, 1, 1, 1, 1
372, 0.0643365, 1, 0.999546, 1, 0.984272, 1, 1, 0.0653949, 1, 1, 1, 1, 1, 1, 1, 0.999546, 1, 1, 0.984273, 0.999999, 1, 1, 1, 1, 1, 1, 1, 1, 1, 1, 1, 1, 1, 1, 1, 1, 1, 1
373, 0.0663304, 1, 0.99945, 1, 0.984363, 1, 1, 0.0674207, 1, 1, 1, 1, 1, 1, 1, 0.99945, 1, 1, 0.984365, 0.999998, 1, 1, 1, 1, 1, 1, 1, 1, 1, 1, 1, 1, 1, 1, 1, 1, 1, 1
374, 0.0683387, 1, 0.999156, 1, 0.984431, 1, 1, 0.0694793, 1, 1, 1, 1, 1, 1, 1, 0.999156, 1, 1, 0.984432, 0.999998, 1, 1, 1, 1, 1, 1, 1, 1, 1, 1, 1, 1, 1, 1, 1, 1, 1, 1
375, 0.0703196, 1, 0.998447, 1, 0.984105, 1, 1, 0.0715706, 1, 1, 1, 1, 1, 1, 1, 0.998447, 1, 1, 0.984107, 0.999997, 1, 1, 1, 1, 1, 1, 1, 1, 1, 1, 1, 1, 1, 1, 1, 1, 1, 1
376, 0.0722661, 1, 0.996899, 1, 0.983741, 1, 1, 0.0736943, 1, 1, 1, 1, 1, 1, 1, 0.996899, 1, 1, 0.983744, 0.999998, 1, 1, 1, 1, 1, 1, 1, 1, 1, 1, 1, 1, 1, 1, 1, 1, 1, 1
377, 0.0741925, 1, 0.994124, 1, 0.984022, 1, 1, 0.07585, 1, 1, 1, 1, 1, 1, 1, 0.994124, 1, 1, 0.984023, 0.999999, 1, 1, 1, 1, 1, 1, 1, 1, 1, 1, 1, 1, 1, 1, 1, 1, 1, 1
378, 0.0760552, 1, 0.990288, 1, 0.984291, 1, 1, 0.0780375, 1, 1, 1, 1, 1, 1, 1, 0.990288, 1, 1, 0.984292, 0.999999, 1, 1, 1, 1, 1, 1, 1, 1, 1, 1, 1, 1, 1, 1, 1, 1, 1, 1
379, 0.0779073, 1, 0.986651, 1, 0.983984, 1, 1, 0.0802563, 1, 1, 1, 1, 1, 1, 1, 0.986651, 1, 1, 0.983985, 0.999999, 1, 1, 1, 1, 1, 1, 1, 1, 1, 1, 1, 1, 1, 1, 1, 1, 1, 1
380, 0.0799251, 1, 0.985049, 1, 0.98343, 1, 1, 0.0825063, 1, 1, 1, 1, 1, 1, 1, 0.985049, 1, 1, 0.983431, 0.999999, 1, 1, 1, 1, 1, 1, 1, 1, 1, 1, 1, 1, 1, 1, 1, 1, 1, 1
381, 0.0822671, 1, 0.98647, 1, 0.98348, 1, 1, 0.0847869, 1, 1, 1, 1, 1, 1, 1, 0.98647, 1, 1, 0.983481, 0.999999, 1, 1, 1, 1, 1, 1, 1, 1, 1, 1, 1, 1, 1, 1, 1, 1, 1, 1
382, 0.0848488, 1, 0.99004, 1, 0.983835, 1, 1, 0.087098, 1, 1, 1, 1, 1, 1, 1, 0.99004, 1, 1, 0.983837, 0.999999, 1, 1, 1, 1, 1, 1, 1, 1, 1, 1, 1, 1, 1, 1, 1, 1, 1, 1
383, 0.0874711, 1, 0.993903, 1, 0.983902, 1, 1, 0.089439, 1, 1, 1, 1, 1, 1, 1, 0.993903, 1, 1, 0.983904, 0.999998, 1, 1, 1, 1, 1, 1, 1, 1, 1, 1, 1, 1, 1, 1, 1, 1, 1, 1
384, 0.0900145, 1, 0.996737, 1, 0.983607, 1, 1, 0.0918097, 1, 1, 1, 1, 1, 1, 1, 0.996737, 1, 1, 0.983608, 0.999999, 1, 1, 1, 1, 1, 1, 1, 1, 1, 1, 1, 1, 1, 1, 1, 1, 1, 1
385, 0.0925025, 1, 0.998356, 1, 0.983464, 1, 1, 0.0942097, 1, 1, 1, 1, 1, 1, 1, 0.998356, 1, 1, 0.983465, 0.999999, 1, 1, 1, 1, 1, 1, 1, 1, 1, 1, 1, 1, 1, 1, 1, 1, 1, 1
386, 0.0949674, 1, 0.999141, 1, 0.983536, 1, 1, 0.0966383, 1, 1, 1, 1, 1, 1, 1, 0.999141, 1, 1, 0.983537, 1, 1, 1, 1, 1, 1, 1, 1, 1, 1, 1, 1, 1, 1, 1, 1, 1, 1, 1
387, 0.09741, 0.999998, 0.999462, 1, 0.983524, 1, 1, 0.0990955, 1, 1, 1, 1, 1, 1, 1, 0.999462, 1, 1, 0.983525, 0.999999, 1, 1, 1, 1, 1, 1, 1, 1, 1, 1, 1, 1, 1, 1, 1, 1, 1, 1
388, 0.0998396, 0.999975, 0.999555, 1, 0.983331, 1, 1, 0.101581, 1, 1, 1, 1, 1, 1, 1, 0.999555, 1, 1, 0.983332, 0.999999, 1, 1, 1, 1, 1, 1, 1, 1, 1, 1, 1, 1, 1, 1, 1, 1, 1, 1
389, 0.102282, 0.999893, 0.999584, 1, 0.983121, 1, 1, 0.104093, 1, 1, 1, 1, 1, 1, 1, 0.999584, 1, 1, 0.983123, 0.999999, 1, 1, 1, 1, 1, 1, 1, 1, 1, 1, 1, 1, 1, 1, 1, 1, 1, 1
390, 0.104759, 0.99978, 0.999657, 1, 0.982979, 1, 1, 0.106633, 1, 1, 1, 1, 1, 1, 1, 0.999657, 1, 1, 0.982981, 0.999999, 1, 1, 1, 1, 1, 1, 1, 1, 1, 1, 1, 1, 1, 1, 1, 1, 1, 1
391, 0.107278, 0.999699, 0.999789, 1, 0.982908, 1, 1, 0.1092, 1, 1, 1, 1, 1, 1, 1, 0.999789, 1, 1, 0.982908, 1, 1, 1, 1, 1, 1, 1, 1, 1, 1, 1, 1, 1, 1, 1, 1, 1, 1, 1
392, 0.109865, 0.999715, 0.999918, 1, 0.983107, 1, 1, 0.111792, 1, 1, 1, 1, 1, 1, 1, 0.999918, 1, 1, 0.983107, 1, 1, 1, 1, 1, 1, 1, 1, 1, 1, 1, 1, 1, 1, 1, 1, 1, 1, 1
393, 0.112511, 0.999772, 0.999986, 1, 0.983612, 1, 1, 0.114411, 1, 1, 1, 1, 1, 1, 1, 0.999986, 1, 1, 0.983613, 1, 1, 1, 1, 1, 1, 1, 1, 1, 1, 1, 1, 1, 1, 1, 1, 1, 1, 1
394, 0.115137, 0.999824, 1, 1, 0.983793, 1, 1, 0.117055, 1, 1, 1, 1, 1, 1, 1, 1, 1, 1, 0.983793, 1, 1, 1, 1, 1, 1, 1, 1, 1, 1, 1, 1, 1, 1, 1, 1, 1, 1, 1
395, 0.117712, 0.999586, 1, 1, 0.98363, 1, 1, 0.119723, 1, 1, 1, 1, 1, 1, 1, 1, 1, 1, 0.983631, 1, 1, 1, 1, 1, 1, 1, 1, 1, 1, 1, 1, 1, 1, 1, 1, 1, 1, 1
396, 0.120247, 0.998909, 1, 1, 0.983377, 1, 1, 0.122416, 1, 1, 1, 1, 1, 1, 1, 1, 1, 1, 0.983377, 1, 1, 1, 1, 1, 1, 1, 1, 1, 1, 1, 1, 1, 1, 1, 1, 1, 1, 1
397, 0.122799, 0.998097, 1, 1, 0.983239, 1, 1, 0.125133, 1, 1, 1, 1, 1, 1, 1, 1, 1, 1, 0.983239, 1, 1, 1, 1, 1, 1, 1, 1, 1, 1, 1, 1, 1, 1, 1, 1, 1, 1, 1
398, 0.125405, 0.997798, 0.999984, 1, 0.982885, 1, 1, 0.127873, 1, 1, 1, 1, 1, 1, 1, 0.999984, 1, 1, 0.982885, 1, 1, 1, 1, 1, 1, 1, 1, 1, 1, 1, 1, 1, 1, 1, 1, 1, 1, 1
399, 0.12808, 0.997968, 0.999909, 1, 0.98252, 1, 1, 0.130637, 1, 1, 1, 1, 1, 1, 1, 0.999909, 1, 1, 0.98252, 1, 1, 1, 1, 1, 1, 1, 1, 1, 1, 1, 1, 1, 1, 1, 1, 1, 1, 1
400, 0.130822, 0.99847, 0.999778, 1, 0.982227, 1, 1, 0.133422, 1, 1, 1, 1, 1, 1, 1, 0.999778, 1, 1, 0.982227, 1, 1, 1, 1, 1, 1, 1, 1, 1, 1, 1, 1, 1, 1, 1, 1, 1, 1, 1
401, 0.13368, 0.998937, 0.99966, 1, 0.982636, 1, 1, 0.13623, 1, 1, 1, 1, 1, 1, 1, 0.99966, 1, 1, 0.982636, 1, 1, 1, 1, 1, 1, 1, 1, 1, 1, 1, 1, 1, 1, 1, 1, 1, 1, 1
402, 0.136605, 0.999358, 0.999595, 1, 0.983356, 1, 1, 0.139059, 1, 1, 1, 1, 1, 1, 1, 0.999595, 1, 1, 0.983356, 1, 1, 1, 1, 1, 1, 1, 1, 1, 1, 1, 1, 1, 1, 1, 1, 1, 1, 1
403, 0.139499, 0.999627, 0.999577, 1, 0.983799, 1, 1, 0.141909, 1, 1, 1, 1, 1, 1, 1, 0.999577, 1, 1, 0.983799, 1, 1, 1, 1, 1, 1, 1, 1, 1, 1, 1, 1, 1, 1, 1, 1, 1, 1, 1
404, 0.142304, 0.999775, 0.999568, 1, 0.983564, 1, 1, 0.144779, 1, 1, 1, 1, 1, 1, 1, 0.999568, 1, 1, 0.983564, 1, 1, 1, 1, 1, 1, 1, 1, 1, 1, 1, 1, 1, 1, 1, 1, 1, 1, 1
405, 0.145155, 0.999867, 0.999589, 0.999997, 0.983501, 1, 1, 0.147669, 1, 1, 1, 1, 1, 1, 1, 0.999589, 1, 1, 0.983501, 1, 1, 1, 1, 1, 1, 1, 1, 1, 1, 1, 1, 1, 1, 1, 1, 1, 1, 1
406, 0.148105, 0.999929, 0.999674, 0.999969, 0.983973, 1, 1, 0.150579, 1, 1, 1, 1, 1, 1, 1, 0.999674, 1, 1, 0.983973, 1, 1, 1, 1, 1, 1, 1, 1, 1, 1, 1, 1, 1, 1, 1, 1, 1, 1, 1
407, 0.151012, 0.999965, 0.999819, 0.999898, 0.984065, 1, 1, 0.153507, 1, 1, 1, 1, 1, 1, 1, 0.999819, 1, 1, 0.984065, 1, 1, 1, 1, 1, 1, 1, 1, 1, 1, 1, 1, 1, 1, 1, 1, 1, 1, 1
408, 0.153795, 0.999977, 0.999939, 0.999792, 0.983315, 1, 1, 0.156454, 1, 1, 1, 1, 1, 1, 1, 0.999939, 1, 1, 0.983315, 1, 1, 1, 1, 1, 1, 1, 1, 1, 1, 1, 1, 1, 1, 1, 1, 1, 1, 1
409, 0.156584, 0.999984, 0.999996, 0.999691, 0.982552, 1, 1, 0.159419, 1, 1, 1, 1, 1, 1, 1, 0.999996, 1, 1, 0.982552, 1, 1, 1, 1, 1, 1, 1, 1, 1, 1, 1, 1, 1, 1, 1, 1, 1, 1, 1
410, 0.159518, 0.99999, 1, 0.999623, 0.982613, 1, 1, 0.162402, 1, 1, 1, 1, 1, 1, 1, 1, 1, 1, 0.982613, 1, 1, 1, 1, 1, 1, 1, 1, 1, 1, 1, 1, 1, 1, 1, 1, 1, 1, 1
411, 0.162553, 0.999977, 1, 0.999596, 0.98319, 1, 1, 0.165401, 1, 1, 1, 1, 1, 1, 1, 1, 1, 1, 0.98319, 1, 1, 1, 1, 1, 1, 1, 1, 1, 1, 1, 1, 1, 1, 1, 1, 1, 1, 1
412, 0.165517, 0.999941, 0.999995, 0.999602, 0.983245, 1, 1, 0.168416, 1, 1, 1, 1, 1, 1, 1, 0.999995, 1, 1, 0.983245, 1, 1, 1, 1, 1, 1, 1, 1, 1, 1, 1, 1, 1, 1, 1, 1, 1, 1, 1
413, 0.168404, 0.999846, 0.999957, 0.999611, 0.982836, 1, 1, 0.171448, 1, 1, 1, 1, 1, 1, 1, 0.999957, 1, 1, 0.982836, 1, 1, 1, 1, 1, 1, 1, 1, 1, 1, 1, 1, 1, 1, 1, 1, 1, 1, 1
