case index 39 = {
num freq, 1701
num column, 38
Waveln,  combin,  H2O,  umix,  O3,  trace,  N2,  H2Ocnt,  molec,  aercld,  HNO3,  aercld,  CO2,  CO,  CH4,  N2O,  O2,  NH3,  NO,  NO2,  SO2,  cloud,  F11,  F12,  CCl3F,  CF4,  F22,  F113,  F114,  R115,  ClONO2,  HNO4,  CHCl2F,  CCl4,  N2O5,  H2-H2,  H2-HE,  H2-CH4,  CH4-CH4
  [nm],  trans,  trans,  trans,  trans,  trans,  trans,  trans,  scat,  trans,  trans,  abtrns,  trans,  trans,  trans,  trans,  trans,  trans,  trans,  trans,  trans,  trans,  trans,  trans,  trans,  trans,  trans,  trans,  trans,  trans,  trans,  trans,  trans,  trans,  trans,  trans,  trans,  trans,  trans
300, 0.000651918, 1, 1, 0.00649618, 0.996026, 1, 1, 0.152496, 0.652352, 1, 0.922526, 1, 1, 1, 1, 1, 1, 1, 0.998886, 0.997136, 1, 1, 1, 1, 1, 1, 1, 1, 1, 1, 1, 1, 1, 1, 1, 1, 1, 1
301, 0.00125086, 1, 1, 0.0121458, 0.9964, 1, 1, 0.156639, 0.652925, 1, 0.92282, 1, 1, 1, 1, 1, 1, 1, 0.99886, 0.997537, 1, 1, 1, 1, 1, 1, 1, 1, 1, 1, 1, 1, 1, 1, 1, 1, 1, 1
302, 0.00225145, 1, 1, 0.0212903, 0.996572, 1, 1, 0.160817, 0.653548, 1, 0.923074, 1, 1, 1, 1, 1, 1, 1, 0.998777, 0.997791, 1, 1, 1, 1, 1, 1, 1, 1, 1, 1, 1, 1, 1, 1, 1, 1, 1, 1
303, 0.00373422, 1, 1, 0.0344382, 0.996639, 1, 1, 0.165029, 0.654179, 1, 0.923323, 1, 1, 1, 1, 1, 1, 1, 0.998685, 0.997951, 1, 1, 1, 1, 1, 1, 1, 1, 1, 1, 1, 1, 1, 1, 1, 1, 1, 1
304, 0.00584874, 1, 1, 0.0525643, 0.996768, 1, 1, 0.169271, 0.654809, 1, 0.92357, 1, 1, 1, 1, 1, 1, 1, 0.998634, 0.99813, 1, 1, 1, 1, 1, 1, 1, 1, 1, 1, 1, 1, 1, 1, 1, 1, 1, 1
305, 0.00872684, 1, 1, 0.0765013, 0.996908, 1, 1, 0.173545, 0.655436, 1, 0.923814, 1, 1, 1, 1, 1, 1, 1, 0.998614, 0.998291, 1, 1, 1, 1, 1, 1, 1, 1, 1, 1, 1, 1, 1, 1, 1, 1, 1, 1
306, 0.0123452, 1, 1, 0.10559, 0.996972, 1, 1, 0.177848, 0.656058, 1, 0.924053, 1, 1, 1, 1, 1, 1, 1, 0.998593, 0.998377, 1, 1, 1, 1, 1, 1, 1, 1, 1, 1, 1, 1, 1, 1, 1, 1, 1, 1
307, 0.0169326, 1, 1, 0.141297, 0.997026, 1, 1, 0.182178, 0.656677, 1, 0.924289, 1, 1, 1, 1, 1, 1, 1, 0.998556, 0.998468, 1, 1, 1, 1, 1, 1, 1, 1, 1, 1, 1, 1, 1, 1, 1, 1, 1, 1
308, 0.0221599, 1, 1, 0.180608, 0.997148, 1, 1, 0.186534, 0.657297, 1, 0.924526, 1, 1, 1, 1, 1, 1, 1, 0.998506, 0.99864, 1, 1, 1, 1, 1, 1, 1, 1, 1, 1, 1, 1, 1, 1, 1, 1, 1, 1
309, 0.0282011, 1, 1, 0.224383, 0.99718, 1, 1, 0.190916, 0.657916, 1, 0.924761, 1, 1, 1, 1, 1, 1, 1, 0.998428, 0.99875, 1, 1, 1, 1, 1, 1, 1, 1, 1, 1, 1, 1, 1, 1, 1, 1, 1, 1
310, 0.035127, 1, 1, 0.2731, 0.997237, 1, 1, 0.195321, 0.65853, 1, 0.924994, 1, 1, 1, 1, 1, 1, 1, 0.998355, 0.99888, 1, 1, 1, 1, 1, 1, 1, 1, 1, 1, 1, 1, 1, 1, 1, 1, 1, 1
311, 0.0422279, 1, 1, 0.320853, 0.997337, 1, 1, 0.199748, 0.659139, 1, 0.925224, 1, 1, 1, 1, 1, 1, 1, 0.998304, 0.999031, 1, 1, 1, 1, 1, 1, 1, 1, 1, 1, 1, 1, 1, 1, 1, 1, 1, 1
312, 0.0501615, 1, 1, 0.372456, 0.997435, 1, 1, 0.204195, 0.659745, 1, 0.925452, 1, 1, 1, 1, 1, 1, 1, 0.998254, 0.999181, 1, 1, 1, 1, 1, 1, 1, 1, 1, 1, 1, 1, 1, 1, 1, 1, 1, 1
313, 0.058377, 1, 1, 0.424009, 0.997508, 1, 1, 0.208663, 0.660351, 1, 0.925681, 1, 1, 1, 1, 1, 1, 1, 0.998224, 0.999284, 1, 1, 1, 1, 1, 1, 1, 1, 1, 1, 1, 1, 1, 1, 1, 1, 1, 1
314, 0.0666376, 1, 1, 0.47339, 0.997579, 1, 1, 0.213149, 0.660957, 1, 0.925908, 1, 1, 1, 1, 1, 1, 1, 0.998184, 0.999393, 1, 1, 1, 1, 1, 1, 1, 1, 1, 1, 1, 1, 1, 1, 1, 1, 1, 1
315, 0.0752418, 1, 1, 0.523128, 0.997605, 1, 1, 0.217651, 0.661558, 1, 0.926133, 1, 1, 1, 1, 1, 1, 1, 0.998118, 0.999486, 1, 1, 1, 1, 1, 1, 1, 1, 1, 1, 1, 1, 1, 1, 1, 1, 1, 1
316, 0.0834358, 1, 1, 0.567925, 0.997599, 1, 1, 0.222169, 0.662153, 1, 0.926355, 1, 1, 1, 1, 1, 1, 1, 0.998061, 0.999538, 1, 1, 1, 1, 1, 1, 1, 1, 1, 1, 1, 1, 1, 1, 1, 1, 1, 1
317, 0.0914266, 1, 1, 0.609419, 0.997576, 1, 1, 0.226701, 0.662744, 1, 0.926575, 1, 1, 1, 1, 1, 1, 1, 0.997973, 0.999602, 1, 1, 1, 1, 1, 1, 1, 1, 1, 1, 1, 1, 1, 1, 1, 1, 1, 1
318, 0.10031, 1, 1, 0.654852, 0.997566, 1, 1, 0.231247, 0.663335, 1, 0.926795, 1, 1, 1, 1, 1, 1, 1, 0.99789, 0.999676, 1, 1, 1, 1, 1, 1, 1, 1, 1, 1, 1, 1, 1, 1, 1, 1, 1, 1
319, 0.108687, 1, 1, 0.695464, 0.997599, 1, 1, 0.235805, 0.663927, 1, 0.927015, 1, 1, 1, 1, 1, 1, 1, 0.997846, 0.999753, 1, 1, 1, 1, 1, 1, 1, 1, 1, 1, 1, 1, 1, 1, 1, 1, 1, 1
320, 0.116329, 1, 1, 0.729531, 0.997599, 1, 1, 0.240373, 0.664515, 1, 0.927233, 1, 1, 1, 1, 1, 1, 1, 0.997799, 0.9998, 1, 1, 1, 1, 1, 1, 1, 1, 1, 1, 1, 1, 1, 1, 1, 1, 1, 1
321, 0.124655, 1, 1, 0.766514, 0.997608, 1, 1, 0.244951, 0.665098, 1, 0.927448, 1, 1, 1, 1, 1, 1, 1, 0.997767, 0.999841, 1, 1, 1, 1, 1, 1, 1, 1, 1, 1, 1, 1, 1, 1, 1, 1, 1, 1
322, 0.130518, 1, 1, 0.787516, 0.997605, 1, 1, 0.249537, 0.665678, 1, 0.927661, 1, 1, 1, 1, 1, 1, 1, 0.99772, 0.999885, 1, 1, 1, 1, 1, 1, 1, 1, 1, 1, 1, 1, 1, 1, 1, 1, 1, 1
323, 0.137572, 1, 1, 0.813919, 0.997573, 1, 1, 0.254131, 0.666258, 1, 0.927873, 1, 1, 1, 1, 1, 1, 1, 0.997657, 0.999916, 1, 1, 1, 1, 1, 1, 1, 1, 1, 1, 1, 1, 1, 1, 1, 1, 1, 1
324, 0.145652, 1, 1, 0.846056, 0.997552, 1, 1, 0.25873, 0.666838, 1, 0.928085, 1, 1, 1, 1, 1, 1, 1, 0.997613, 0.999939, 1, 1, 1, 1, 1, 1, 1, 1, 1, 1, 1, 1, 1, 1, 1, 1, 1, 1
325, 0.150183, 1, 1, 0.856567, 0.997506, 1, 1, 0.263335, 0.667415, 1, 0.928296, 1, 1, 1, 1, 1, 1, 1, 0.997553, 0.999954, 1, 1, 1, 1, 1, 1, 1, 1, 1, 1, 1, 1, 1, 1, 1, 1, 1, 1
326, 0.156991, 1, 1, 0.87891, 0.99746, 1, 1, 0.267944, 0.667986, 1, 0.928503, 1, 1, 1, 1, 1, 1, 1, 0.997495, 0.999965, 1, 1, 1, 1, 1, 1, 1, 1, 1, 1, 1, 1, 1, 1, 1, 1, 1, 1
327, 0.1633, 1, 1, 0.898464, 0.997439, 1, 1, 0.272556, 0.668552, 1, 0.928709, 1, 1, 1, 1, 1, 1, 1, 0.997464, 0.999976, 1, 1, 1, 1, 1, 1, 1, 1, 1, 1, 1, 1, 1, 1, 1, 1, 1, 1
328, 0.167038, 1, 1, 0.902908, 0.997397, 1, 1, 0.277169, 0.669118, 1, 0.928914, 1, 1, 1, 1, 1, 1, 1, 0.997415, 0.999982, 1, 1, 1, 1, 1, 1, 1, 1, 1, 1, 1, 1, 1, 1, 1, 1, 1, 1
329, 0.174007, 1, 1, 0.924226, 0.99733, 1, 1, 0.281784, 0.669684, 1, 0.929119, 1, 1, 1, 1, 1, 1, 1, 0.997344, 0.999986, 1, 1, 1, 1, 1, 1, 1, 1, 1, 1, 1, 1, 1, 1, 1, 1, 1, 1
330, 0.179409, 1, 1, 0.937216, 0.997294, 1, 1, 0.286399, 0.670249, 1, 0.929324, 1, 1, 1, 1, 1, 1, 1, 0.997304, 0.999991, 1, 1, 1, 1, 1, 1, 1, 1, 1, 1, 1, 1, 1, 1, 1, 1, 1, 1
331, 0.182205, 1, 1, 0.935877, 0.997263, 1, 1, 0.291012, 0.670808, 1, 0.929525, 1, 1, 1, 1, 1, 1, 1, 0.99727, 0.999994, 1, 1, 1, 1, 1, 1, 1, 1, 1, 1, 1, 1, 1, 1, 1, 1, 1, 1
332, 0.187943, 1, 1, 0.949443, 0.997132, 1, 1, 0.295624, 0.671362, 1, 0.929724, 1, 1, 1, 1, 1, 1, 1, 0.997136, 0.999996, 1, 1, 1, 1, 1, 1, 1, 1, 1, 1, 1, 1, 1, 1, 1, 1, 1, 1
333, 0.193097, 1, 1, 0.960056, 0.997027, 1, 1, 0.300232, 0.671917, 1, 0.929923, 1, 1, 1, 1, 1, 1, 1, 0.99703, 0.999997, 1, 1, 1, 1, 1, 1, 1, 1, 1, 1, 1, 1, 1, 1, 1, 1, 1, 1
334, 0.196529, 1, 0.999943, 0.961528, 0.997056, 1, 1, 0.304837, 0.672475, 1, 0.930121, 1, 1, 1, 1, 0.999943, 1, 1, 0.997058, 0.999997, 1, 1, 1, 1, 1, 1, 1, 1, 1, 1, 1, 1, 1, 1, 1, 1, 1, 1
335, 0.201874, 1, 0.999766, 0.972236, 0.997045, 1, 1, 0.309437, 0.673056, 1, 0.930313, 1, 1, 1, 1, 0.999766, 1, 1, 0.997047, 0.999998, 1, 1, 1, 1, 1, 1, 1, 1, 1, 1, 1, 1, 1, 1, 1, 1, 1, 1
336, 0.206328, 1, 0.999564, 0.978671, 0.997002, 1, 1, 0.314032, 0.673678, 1, 0.930499, 1, 1, 1, 1, 0.999564, 1, 1, 0.997004, 0.999999, 1, 1, 1, 1, 1, 1, 1, 1, 1, 1, 1, 1, 1, 1, 1, 1, 1, 1
337, 0.20869, 1, 0.999452, 0.974821, 0.996979, 1, 1, 0.318621, 0.674324, 1, 0.93068, 1, 1, 1, 1, 0.999452, 1, 1, 0.996979, 1, 1, 1, 1, 1, 1, 1, 1, 1, 1, 1, 1, 1, 1, 1, 1, 1, 1, 1
338, 0.212588, 1, 0.999382, 0.978062, 0.996851, 1, 1, 0.323202, 0.674975, 1, 0.93086, 1, 1, 1, 1, 0.999382, 1, 1, 0.996852, 1, 1, 1, 1, 1, 1, 1, 1, 1, 1, 1, 1, 1, 1, 1, 1, 1, 1, 1
339, 0.217345, 1, 0.999255, 0.98538, 0.996688, 1, 1, 0.327776, 0.675634, 1, 0.93104, 1, 1, 1, 1, 0.999255, 1, 1, 0.996688, 1, 1, 1, 1, 1, 1, 1, 1, 1, 1, 1, 1, 1, 1, 1, 1, 1, 1, 1
340, 0.220817, 1, 0.999001, 0.986778, 0.996589, 1, 1, 0.332341, 0.676318, 1, 0.931213, 1, 1, 1, 1, 0.999001, 1, 1, 0.996589, 1, 1, 1, 1, 1, 1, 1, 1, 1, 1, 1, 1, 1, 1, 1, 1, 1, 1, 1
341, 0.224411, 1, 0.998588, 0.98863, 0.996548, 1, 1, 0.336896, 0.677029, 1, 0.931381, 1, 1, 1, 1, 0.998588, 1, 1, 0.996549, 1, 1, 1, 1, 1, 1, 1, 1, 1, 1, 1, 1, 1, 1, 1, 1, 1, 1, 1
342, 0.228542, 1, 0.99808, 0.99279, 0.996642, 1, 1, 0.341442, 0.677752, 1, 0.931546, 1, 1, 1, 1, 0.99808, 1, 1, 0.996642, 1, 1, 1, 1, 1, 1, 1, 1, 1, 1, 1, 1, 1, 1, 1, 1, 1, 1, 1
343, 0.231743, 1, 0.997697, 0.992787, 0.996732, 1, 1, 0.345977, 0.678477, 1, 0.931712, 1, 1, 1, 1, 0.997697, 1, 1, 0.996732, 0.999999, 1, 1, 1, 1, 1, 1, 1, 1, 1, 1, 1, 1, 1, 1, 1, 1, 1, 1
344, 0.234549, 1, 0.997736, 0.990793, 0.996659, 1, 1, 0.3505, 0.679201, 1, 0.931878, 1, 1, 1, 1, 0.997736, 1, 1, 0.996659, 0.999999, 1, 1, 1, 1, 1, 1, 1, 1, 1, 1, 1, 1, 1, 1, 1, 1, 1, 1
345, 0.238339, 1, 0.998262, 0.992532, 0.99651, 1, 1, 0.355011, 0.679922, 1, 0.932042, 1, 1, 1, 1, 0.998262, 1, 1, 0.99651, 1, 1, 1, 1, 1, 1, 1, 1, 1, 1, 1, 1, 1, 1, 1, 1, 1, 1, 1
346, 0.242543, 1, 0.998929, 0.995853, 0.996365, 1, 1, 0.35951, 0.680635, 1, 0.932205, 1, 1, 1, 1, 0.998929, 1, 1, 0.996366, 1, 1, 1, 1, 1, 1, 1, 1, 1, 1, 1, 1, 1, 1, 1, 1, 1, 1, 1
347, 0.246237, 1, 0.999375, 0.99726, 0.996206, 1, 1, 0.363995, 0.681344, 1, 0.932366, 1, 1, 1, 1, 0.999375, 1, 1, 0.996207, 1, 1, 1, 1, 1, 1, 1, 1, 1, 1, 1, 1, 1, 1, 1, 1, 1, 1, 1
348, 0.249687, 1, 0.999571, 0.997842, 0.996089, 1, 1, 0.368467, 0.682053, 1, 0.932528, 1, 1, 1, 1, 0.999571, 1, 1, 0.996089, 1, 1, 1, 1, 1, 1, 1, 1, 1, 1, 1, 1, 1, 1, 1, 1, 1, 1, 1
349, 0.253203, 1, 0.999614, 0.998618, 0.99619, 1, 1, 0.372924, 0.682761, 1, 0.932689, 1, 1, 1, 1, 0.999614, 1, 1, 0.99619, 1, 1, 1, 1, 1, 1, 1, 1, 1, 1, 1, 1, 1, 1, 1, 1, 1, 1, 1
350, 0.256582, 1, 0.999571, 0.99893, 0.996316, 1, 1, 0.377366, 0.683464, 1, 0.932848, 1, 1, 1, 1, 0.999571, 1, 1, 0.996317, 0.999999, 1, 1, 1, 1, 1, 1, 1, 1, 1, 1, 1, 1, 1, 1, 1, 1, 1, 1
351, 0.259706, 1, 0.999491, 0.998475, 0.996283, 1, 1, 0.381792, 0.684159, 1, 0.933006, 1, 1, 1, 1, 0.999491, 1, 1, 0.996283, 0.999999, 1, 1, 1, 1, 1, 1, 1, 1, 1, 1, 1, 1, 1, 1, 1, 1, 1, 1
352, 0.262876, 1, 0.999368, 0.998201, 0.996307, 1, 1, 0.386202, 0.68485, 1, 0.933164, 1, 1, 1, 1, 0.999368, 1, 1, 0.996307, 1, 1, 1, 1, 1, 1, 1, 1, 1, 1, 1, 1, 1, 1, 1, 1, 1, 1, 1
353, 0.266231, 1, 0.999189, 0.998816, 0.996229, 1, 1, 0.390596, 0.685542, 1, 0.933322, 1, 1, 1, 1, 0.999189, 1, 1, 0.99623, 0.999999, 1, 1, 1, 1, 1, 1, 1, 1, 1, 1, 1, 1, 1, 1, 1, 1, 1, 1
354, 0.269515, 1, 0.998935, 0.999478, 0.995936, 1, 1, 0.394973, 0.686232, 1, 0.933478, 1, 1, 1, 1, 0.998935, 1, 1, 0.995937, 0.999999, 1, 1, 1, 1, 1, 1, 1, 1, 1, 1, 1, 1, 1, 1, 1, 1, 1, 1
355, 0.272662, 1, 0.998525, 0.999602, 0.995855, 1, 1, 0.399332, 0.686918, 1, 0.933634, 1, 1, 1, 1, 0.998525, 1, 1, 0.995855, 0.999999, 1, 1, 1, 1, 1, 1, 1, 1, 1, 1, 1, 1, 1, 1, 1, 1, 1, 1
356, 0.275678, 1, 0.997829, 0.999499, 0.995863, 1, 1, 0.403674, 0.687599, 1, 0.933789, 1, 1, 1, 1, 0.997829, 1, 1, 0.995863, 1, 1, 1, 1, 1, 1, 1, 1, 1, 1, 1, 1, 1, 1, 1, 1, 1, 1, 1
357, 0.278523, 1, 0.996714, 0.999391, 0.995721, 1, 1, 0.407997, 0.688276, 1, 0.933942, 1, 1, 1, 1, 0.996714, 1, 1, 0.995722, 1, 1, 1, 1, 1, 1, 1, 1, 1, 1, 1, 1, 1, 1, 1, 1, 1, 1, 1
358, 0.281332, 1, 0.995151, 0.999443, 0.995791, 1, 1, 0.412301, 0.688954, 1, 0.934095, 1, 1, 1, 1, 0.995151, 1, 1, 0.995792, 0.999999, 1, 1, 1, 1, 1, 1, 1, 1, 1, 1, 1, 1, 1, 1, 1, 1, 1, 1
359, 0.28413, 1, 0.993438, 0.999523, 0.996007, 1, 1, 0.416587, 0.689631, 1, 0.934249, 1, 1, 1, 1, 0.993438, 1, 1, 0.996007, 0.999999, 1, 1, 1, 1, 1, 1, 1, 1, 1, 1, 1, 1, 1, 1, 1, 1, 1, 1
360, 0.286976, 1, 0.992283, 0.999527, 0.995969, 1, 1, 0.420853, 0.690303, 1, 0.934401, 1, 1, 1, 1, 0.992283, 1, 1, 0.99597, 0.999999, 1, 1, 1, 1, 1, 1, 1, 1, 1, 1, 1, 1, 1, 1, 1, 1, 1, 1
361, 0.290208, 1, 0.992577, 0.999585, 0.995798, 1, 1, 0.425099, 0.690968, 1, 0.934551, 1, 1, 1, 1, 0.992577, 1, 1, 0.995798, 1, 1, 1, 1, 1, 1, 1, 1, 1, 1, 1, 1, 1, 1, 1, 1, 1, 1, 1
362, 0.29396, 1, 0.994475, 0.999705, 0.995755, 1, 1, 0.429324, 0.69163, 1, 0.934701, 1, 1, 1, 1, 0.994475, 1, 1, 0.995756, 1, 1, 1, 1, 1, 1, 1, 1, 1, 1, 1, 1, 1, 1, 1, 1, 1, 1, 1
363, 0.297856, 1, 0.996815, 0.999804, 0.99577, 1, 1, 0.43353, 0.692293, 1, 0.934851, 1, 1, 1, 1, 0.996815, 1, 1, 0.99577, 0.999999, 1, 1, 1, 1, 1, 1, 1, 1, 1, 1, 1, 1, 1, 1, 1, 1, 1, 1
364, 0.301475, 1, 0.998447, 0.99984, 0.995623, 1, 1, 0.437714, 0.692954, 1, 0.935001, 1, 1, 1, 1, 0.998447, 1, 1, 0.995623, 0.999999, 1, 1, 1, 1, 1, 1, 1, 1, 1, 1, 1, 1, 1, 1, 1, 1, 1, 1
365, 0.304832, 1, 0.999279, 0.99987, 0.995422, 1, 1, 0.441878, 0.693612, 1, 0.935149, 1, 1, 1, 1, 0.999279, 1, 1, 0.995422, 1, 1, 1, 1, 1, 1, 1, 1, 1, 1, 1, 1, 1, 1, 1, 1, 1, 1, 1
366, 0.308129, 1, 0.999656, 0.999948, 0.995457, 1, 1, 0.44602, 0.694262, 1, 0.935295, 1, 1, 1, 1, 0.999656, 1, 1, 0.995457, 1, 1, 1, 1, 1, 1, 1, 1, 1, 1, 1, 1, 1, 1, 1, 1, 1, 1, 1
367, 0.311359, 1, 0.999816, 0.999997, 0.995554, 1, 1, 0.450141, 0.694909, 1, 0.935442, 1, 1, 1, 1, 0.999816, 1, 1, 0.995554, 1, 1, 1, 1, 1, 1, 1, 1, 1, 1, 1, 1, 1, 1, 1, 1, 1, 1, 1
368, 0.314505, 1, 0.99987, 1, 0.995555, 1, 1, 0.454239, 0.695557, 1, 0.935588, 1, 1, 1, 1, 0.99987, 1, 1, 0.995555, 1, 1, 1, 1, 1, 1, 1, 1, 1, 1, 1, 1, 1, 1, 1, 1, 1, 1, 1
369, 0.317635, 1, 0.999879, 1, 0.995582, 1, 1, 0.458316, 0.696203, 1, 0.935733, 1, 1, 1, 1, 0.999879, 1, 1, 0.995583, 1, 1, 1, 1, 1, 1, 1, 1, 1, 1, 1, 1, 1, 1, 1, 1, 1, 1, 1
370, 0.320748, 1, 0.99988, 1, 0.995607, 1, 1, 0.46237, 0.696847, 1, 0.935878, 1, 1, 1, 1, 0.99988, 1, 1, 0.995608, 0.999999, 1, 1, 1, 1, 1, 1, 1, 1, 1, 1, 1, 1, 1, 1, 1, 1, 1, 1
371, 0.323798, 1, 0.99988, 1, 0.995476, 1, 1, 0.466402, 0.697484, 1, 0.936022, 1, 1, 1, 1, 0.99988, 1, 1, 0.995477, 1, 1, 1, 1, 1, 1, 1, 1, 1, 1, 1, 1, 1, 1, 1, 1, 1, 1, 1
372, 0.326818, 1, 0.999878, 1, 0.995293, 1, 1, 0.470411, 0.698118, 1, 0.936164, 1, 1, 1, 1, 0.999878, 1, 1, 0.995293, 1, 1, 1, 1, 1, 1, 1, 1, 1, 1, 1, 1, 1, 1, 1, 1, 1, 1, 1
373, 0.329902, 1, 0.999859, 1, 0.995356, 1, 1, 0.474397, 0.698754, 1, 0.936307, 1, 1, 1, 1, 0.999859, 1, 1, 0.995356, 1, 1, 1, 1, 1, 1, 1, 1, 1, 1, 1, 1, 1, 1, 1, 1, 1, 1, 1
374, 0.332978, 1, 0.999788, 1, 0.995481, 1, 1, 0.478359, 0.699388, 1, 0.936449, 1, 1, 1, 1, 0.999788, 1, 1, 0.995482, 0.999999, 1, 1, 1, 1, 1, 1, 1, 1, 1, 1, 1, 1, 1, 1, 1, 1, 1, 1
375, 0.335906, 1, 0.999617, 1, 0.995309, 1, 1, 0.482299, 0.700019, 1, 0.93659, 1, 1, 1, 1, 0.999617, 1, 1, 0.99531, 0.999999, 1, 1, 1, 1, 1, 1, 1, 1, 1, 1, 1, 1, 1, 1, 1, 1, 1, 1
376, 0.338731, 1, 0.999225, 1, 0.995097, 1, 1, 0.486215, 0.700642, 1, 0.936731, 1, 1, 1, 1, 0.999225, 1, 1, 0.995097, 0.999999, 1, 1, 1, 1, 1, 1, 1, 1, 1, 1, 1, 1, 1, 1, 1, 1, 1, 1
377, 0.341538, 1, 0.998455, 1, 0.995263, 1, 1, 0.490108, 0.701261, 1, 0.93687, 1, 1, 1, 1, 0.998455, 1, 1, 0.995263, 1, 1, 1, 1, 1, 1, 1, 1, 1, 1, 1, 1, 1, 1, 1, 1, 1, 1, 1
378, 0.344206, 1, 0.997298, 1, 0.995464, 1, 1, 0.493977, 0.70188, 1, 0.937009, 1, 1, 1, 1, 0.997298, 1, 1, 0.995464, 1, 1, 1, 1, 1, 1, 1, 1, 1, 1, 1, 1, 1, 1, 1, 1, 1, 1, 1
379, 0.346715, 1, 0.996119, 1, 0.995273, 1, 1, 0.497822, 0.702499, 1, 0.937148, 1, 1, 1, 1, 0.996119, 1, 1, 0.995273, 1, 1, 1, 1, 1, 1, 1, 1, 1, 1, 1, 1, 1, 1, 1, 1, 1, 1, 1
380, 0.349407, 1, 0.995572, 1, 0.995027, 1, 1, 0.501644, 0.703115, 1, 0.937287, 1, 1, 1, 1, 0.995572, 1, 1, 0.995027, 1, 1, 1, 1, 1, 1, 1, 1, 1, 1, 1, 1, 1, 1, 1, 1, 1, 1, 1
381, 0.35255, 1, 0.996052, 1, 0.995082, 1, 1, 0.505441, 0.703726, 1, 0.937424, 1, 1, 1, 1, 0.996052, 1, 1, 0.995082, 1, 1, 1, 1, 1, 1, 1, 1, 1, 1, 1, 1, 1, 1, 1, 1, 1, 1, 1
382, 0.355971, 1, 0.997225, 1, 0.995263, 1, 1, 0.509214, 0.704333, 1, 0.93756, 1, 1, 1, 1, 0.997225, 1, 1, 0.995263, 1, 1, 1, 1, 1, 1, 1, 1, 1, 1, 1, 1, 1, 1, 1, 1, 1, 1, 1
383, 0.359327, 1, 0.998395, 1, 0.995282, 1, 1, 0.512963, 0.704939, 1, 0.937696, 1, 1, 1, 1, 0.998395, 1, 1, 0.995283, 0.999999, 1, 1, 1, 1, 1, 1, 1, 1, 1, 1, 1, 1, 1, 1, 1, 1, 1, 1
384, 0.362474, 1, 0.999177, 1, 0.995129, 1, 1, 0.516688, 0.705544, 1, 0.937833, 1, 1, 1, 1, 0.999177, 1, 1, 0.995129, 1, 1, 1, 1, 1, 1, 1, 1, 1, 1, 1, 1, 1, 1, 1, 1, 1, 1, 1
385, 0.365512, 1, 0.999592, 1, 0.995074, 1, 1, 0.520389, 0.706144, 1, 0.937967, 1, 1, 1, 1, 0.999592, 1, 1, 0.995074, 1, 1, 1, 1, 1, 1, 1, 1, 1, 1, 1, 1, 1, 1, 1, 1, 1, 1, 1
386, 0.368508, 1, 0.999788, 1, 0.995158, 1, 1, 0.524065, 0.70674, 1, 0.9381, 1, 1, 1, 1, 0.999788, 1, 1, 0.995158, 1, 1, 1, 1, 1, 1, 1, 1, 1, 1, 1, 1, 1, 1, 1, 1, 1, 1, 1
387, 0.371413, 1, 0.999864, 1, 0.995152, 1, 1, 0.527717, 0.707334, 1, 0.938233, 1, 1, 1, 1, 0.999864, 1, 1, 0.995152, 1, 1, 1, 1, 1, 1, 1, 1, 1, 1, 1, 1, 1, 1, 1, 1, 1, 1, 1
388, 0.37425, 0.999998, 0.99988, 1, 0.99506, 1, 1, 0.531344, 0.707927, 1, 0.938366, 1, 1, 1, 1, 0.99988, 1, 1, 0.995061, 1, 1, 1, 1, 1, 1, 1, 1, 1, 1, 1, 1, 1, 1, 1, 1, 1, 1, 1
389, 0.377075, 0.999983, 0.999881, 1, 0.994998, 1, 1, 0.534946, 0.708521, 1, 0.938499, 1, 1, 1, 1, 0.999881, 1, 1, 0.994999, 0.999999, 1, 1, 1, 1, 1, 1, 1, 1, 1, 1, 1, 1, 1, 1, 1, 1, 1, 1
390, 0.3799, 0.999953, 0.999898, 1, 0.994976, 1, 1, 0.538524, 0.709112, 1, 0.938631, 1, 1, 1, 1, 0.999898, 1, 1, 0.994976, 1, 1, 1, 1, 1, 1, 1, 1, 1, 1, 1, 1, 1, 1, 1, 1, 1, 1, 1
391, 0.382713, 0.999935, 0.999941, 1, 0.994925, 1, 1, 0.542078, 0.709697, 1, 0.938761, 1, 1, 1, 1, 0.999941, 1, 1, 0.994925, 1, 1, 1, 1, 1, 1, 1, 1, 1, 1, 1, 1, 1, 1, 1, 1, 1, 1, 1
392, 0.385553, 0.999941, 0.999984, 1, 0.994958, 1, 1, 0.545607, 0.71028, 1, 0.938891, 1, 1, 1, 1, 0.999984, 1, 1, 0.994958, 1, 1, 1, 1, 1, 1, 1, 1, 1, 1, 1, 1, 1, 1, 1, 1, 1, 1, 1
393, 0.388446, 0.999956, 0.999999, 1, 0.995181, 1, 1, 0.549112, 0.710862, 1, 0.939021, 1, 1, 1, 1, 0.999999, 1, 1, 0.995181, 1, 1, 1, 1, 1, 1, 1, 1, 1, 1, 1, 1, 1, 1, 1, 1, 1, 1, 1
394, 0.391273, 0.999971, 1, 1, 0.995279, 1, 1, 0.552592, 0.711444, 1, 0.93915, 1, 1, 1, 1, 1, 1, 1, 0.995279, 1, 1, 1, 1, 1, 1, 1, 1, 1, 1, 1, 1, 1, 1, 1, 1, 1, 1, 1
395, 0.393972, 0.999954, 1, 1, 0.995124, 1, 1, 0.556048, 0.712024, 1, 0.939279, 1, 1, 1, 1, 1, 1, 1, 0.995124, 1, 1, 1, 1, 1, 1, 1, 1, 1, 1, 1, 1, 1, 1, 1, 1, 1, 1, 1
396, 0.396643, 0.9998, 1, 1, 0.995076, 1, 1, 0.559479, 0.7126, 1, 0.939407, 1, 1, 1, 1, 1, 1, 1, 0.995076, 1, 1, 1, 1, 1, 1, 1, 1, 1, 1, 1, 1, 1, 1, 1, 1, 1, 1, 1
397, 0.399292, 0.999587, 1, 1, 0.995076, 1, 1, 0.562886, 0.713171, 1, 0.939534, 1, 1, 1, 1, 1, 1, 1, 0.995076, 1, 1, 1, 1, 1, 1, 1, 1, 1, 1, 1, 1, 1, 1, 1, 1, 1, 1, 1
398, 0.401935, 0.999536, 1, 1, 0.994936, 1, 1, 0.566268, 0.71374, 1, 0.939662, 1, 1, 1, 1, 1, 1, 1, 0.994936, 1, 1, 1, 1, 1, 1, 1, 1, 1, 1, 1, 1, 1, 1, 1, 1, 1, 1, 1
399, 0.404615, 0.9996, 0.999982, 1, 0.994826, 1, 1, 0.569626, 0.714308, 1, 0.939789, 1, 1, 1, 1, 0.999982, 1, 1, 0.994826, 1, 1, 1, 1, 1, 1, 1, 1, 1, 1, 1, 1, 1, 1, 1, 1, 1, 1, 1
400, 0.407276, 0.999691, 0.999937, 1, 0.994711, 1, 1, 0.572959, 0.714875, 1, 0.939914, 1, 1, 1, 1, 0.999937, 1, 1, 0.994711, 1, 1, 1, 1, 1, 1, 1, 1, 1, 1, 1, 1, 1, 1, 1, 1, 1, 1, 1
401, 0.410011, 0.999806, 0.999899, 1, 0.994779, 1, 1, 0.576268, 0.715436, 1, 0.94004, 1, 1, 1, 1, 0.999899, 1, 1, 0.994779, 1, 1, 1, 1, 1, 1, 1, 1, 1, 1, 1, 1, 1, 1, 1, 1, 1, 1, 1
402, 0.412846, 0.999888, 0.999886, 1, 0.995132, 1, 1, 0.579553, 0.715995, 1, 0.940164, 1, 1, 1, 1, 0.999886, 1, 1, 0.995132, 1, 1, 1, 1, 1, 1, 1, 1, 1, 1, 1, 1, 1, 1, 1, 1, 1, 1, 1
403, 0.415581, 0.999933, 0.999881, 1, 0.995305, 1, 1, 0.582813, 0.716554, 1, 0.940288, 1, 1, 1, 1, 0.999881, 1, 1, 0.995305, 1, 1, 1, 1, 1, 1, 1, 1, 1, 1, 1, 1, 1, 1, 1, 1, 1, 1, 1
404, 0.418145, 0.99996, 0.99988, 1, 0.995117, 1, 1, 0.58605, 0.717113, 1, 0.940412, 1, 1, 1, 1, 0.99988, 1, 1, 0.995117, 1, 1, 1, 1, 1, 1, 1, 1, 1, 1, 1, 1, 1, 1, 1, 1, 1, 1, 1
405, 0.420727, 0.999975, 0.99988, 1, 0.995017, 1, 1, 0.589262, 0.717667, 1, 0.940534, 1, 1, 1, 1, 0.99988, 1, 1, 0.995017, 1, 1, 1, 1, 1, 1, 1, 1, 1, 1, 1, 1, 1, 1, 1, 1, 1, 1, 1
406, 0.423463, 0.999988, 0.999902, 0.999995, 0.995308, 1, 1, 0.59245, 0.718215, 1, 0.940657, 1, 1, 1, 1, 0.999902, 1, 1, 0.995308, 1, 1, 1, 1, 1, 1, 1, 1, 1, 1, 1, 1, 1, 1, 1, 1, 1, 1, 1
407, 0.42611, 0.999994, 0.999953, 0.999972, 0.99542, 1, 1, 0.595614, 0.718763, 1, 0.940778, 1, 1, 1, 1, 0.999953, 1, 1, 0.99542, 1, 1, 1, 1, 1, 1, 1, 1, 1, 1, 1, 1, 1, 1, 1, 1, 1, 1, 1
