case index 13 = {
num freq, 1701
num column, 38
Waveln,  combin,  H2O,  umix,  O3,  trace,  N2,  H2Ocnt,  molec,  aercld,  HNO3,  aercld,  CO2,  CO,  CH4,  N2O,  O2,  NH3,  NO,  NO2,  SO2,  cloud,  F11,  F12,  CCl3F,  CF4,  F22,  F113,  F114,  R115,  ClONO2,  HNO4,  CHCl2F,  CCl4,  N2O5,  H2-H2,  H2-HE,  H2-CH4,  CH4-CH4
  [nm],  trans,  trans,  trans,  trans,  trans,  trans,  trans,  scat,  trans,  trans,  abtrns,  trans,  trans,  trans,  trans,  trans,  trans,  trans,  trans,  trans,  trans,  trans,  trans,  trans,  trans,  trans,  trans,  trans,  trans,  trans,  trans,  trans,  trans,  trans,  trans,  trans,  trans,  trans
300, 6.47815e-22, 1, 1, 0.0227841, 0.997044, 1, 1, 0.247222, 1.11323e-19, 1, 4.51041e-06, 1, 1, 1, 1, 1, 1, 1, 0.99917, 0.997872, 1, 1, 1, 1, 1, 1, 1, 1, 1, 1, 1, 1, 1, 1, 1, 1, 1, 1
301, 1.15333e-21, 1, 1, 0.036619, 0.997322, 1, 1, 0.252197, 1.21164e-19, 1, 4.65797e-06, 1, 1, 1, 1, 1, 1, 1, 0.99915, 0.99817, 1, 1, 1, 1, 1, 1, 1, 1, 1, 1, 1, 1, 1, 1, 1, 1, 1, 1
302, 1.95885e-21, 1, 1, 0.0558187, 0.99745, 1, 1, 0.257178, 1.32678e-19, 1, 4.80791e-06, 1, 1, 1, 1, 1, 1, 1, 0.999089, 0.998359, 1, 1, 1, 1, 1, 1, 1, 1, 1, 1, 1, 1, 1, 1, 1, 1, 1, 1
303, 3.1322e-21, 1, 1, 0.0803169, 0.997499, 1, 1, 0.262167, 1.45396e-19, 1, 4.96235e-06, 1, 1, 1, 1, 1, 1, 1, 0.99902, 0.998478, 1, 1, 1, 1, 1, 1, 1, 1, 1, 1, 1, 1, 1, 1, 1, 1, 1, 1
304, 4.7926e-21, 1, 1, 0.110279, 0.997595, 1, 1, 0.267159, 1.59313e-19, 1, 5.12138e-06, 1, 1, 1, 1, 1, 1, 1, 0.998982, 0.998611, 1, 1, 1, 1, 1, 1, 1, 1, 1, 1, 1, 1, 1, 1, 1, 1, 1, 1
305, 7.06634e-21, 1, 1, 0.146216, 0.997699, 1, 1, 0.272156, 1.74473e-19, 1, 5.28394e-06, 1, 1, 1, 1, 1, 1, 1, 0.998967, 0.99873, 1, 1, 1, 1, 1, 1, 1, 1, 1, 1, 1, 1, 1, 1, 1, 1, 1, 1
306, 1.0007e-20, 1, 1, 0.186273, 0.997746, 1, 1, 0.277154, 1.9095e-19, 1, 5.44951e-06, 1, 1, 1, 1, 1, 1, 1, 0.998951, 0.998794, 1, 1, 1, 1, 1, 1, 1, 1, 1, 1, 1, 1, 1, 1, 1, 1, 1, 1
307, 1.3842e-20, 1, 1, 0.231576, 0.997787, 1, 1, 0.282153, 2.08922e-19, 1, 5.61922e-06, 1, 1, 1, 1, 1, 1, 1, 0.998924, 0.998862, 1, 1, 1, 1, 1, 1, 1, 1, 1, 1, 1, 1, 1, 1, 1, 1, 1, 1
308, 1.84802e-20, 1, 1, 0.278589, 0.997878, 1, 1, 0.287152, 2.28577e-19, 1, 5.79409e-06, 1, 1, 1, 1, 1, 1, 1, 0.998886, 0.99899, 1, 1, 1, 1, 1, 1, 1, 1, 1, 1, 1, 1, 1, 1, 1, 1, 1, 1
309, 2.41706e-20, 1, 1, 0.327543, 0.997901, 1, 1, 0.292149, 2.50019e-19, 1, 5.97387e-06, 1, 1, 1, 1, 1, 1, 1, 0.998828, 0.999072, 1, 1, 1, 1, 1, 1, 1, 1, 1, 1, 1, 1, 1, 1, 1, 1, 1, 1
310, 3.10614e-20, 1, 1, 0.379499, 0.997943, 1, 1, 0.297143, 2.73242e-19, 1, 6.1573e-06, 1, 1, 1, 1, 1, 1, 1, 0.998774, 0.999168, 1, 1, 1, 1, 1, 1, 1, 1, 1, 1, 1, 1, 1, 1, 1, 1, 1, 1
311, 3.88531e-20, 1, 1, 0.428213, 0.998018, 1, 1, 0.302133, 2.98335e-19, 1, 6.34398e-06, 1, 1, 1, 1, 1, 1, 1, 0.998736, 0.999281, 1, 1, 1, 1, 1, 1, 1, 1, 1, 1, 1, 1, 1, 1, 1, 1, 1, 1
312, 4.81682e-20, 1, 1, 0.478471, 0.99809, 1, 1, 0.307119, 3.25604e-19, 1, 6.53525e-06, 1, 1, 1, 1, 1, 1, 1, 0.998698, 0.999391, 1, 1, 1, 1, 1, 1, 1, 1, 1, 1, 1, 1, 1, 1, 1, 1, 1, 1
313, 5.87597e-20, 1, 1, 0.527271, 0.998145, 1, 1, 0.312098, 3.55353e-19, 1, 6.73221e-06, 1, 1, 1, 1, 1, 1, 1, 0.998676, 0.999468, 1, 1, 1, 1, 1, 1, 1, 1, 1, 1, 1, 1, 1, 1, 1, 1, 1, 1
314, 7.06975e-20, 1, 1, 0.572375, 0.998197, 1, 1, 0.31707, 3.87742e-19, 1, 6.93463e-06, 1, 1, 1, 1, 1, 1, 1, 0.998647, 0.99955, 1, 1, 1, 1, 1, 1, 1, 1, 1, 1, 1, 1, 1, 1, 1, 1, 1, 1
315, 8.42637e-20, 1, 1, 0.61672, 0.998216, 1, 1, 0.322034, 4.2275e-19, 1, 7.14117e-06, 1, 1, 1, 1, 1, 1, 1, 0.998597, 0.999619, 1, 1, 1, 1, 1, 1, 1, 1, 1, 1, 1, 1, 1, 1, 1, 1, 1, 1
316, 9.90144e-20, 1, 1, 0.655784, 0.998212, 1, 1, 0.326988, 4.60458e-19, 1, 7.35117e-06, 1, 1, 1, 1, 1, 1, 1, 0.998555, 0.999657, 1, 1, 1, 1, 1, 1, 1, 1, 1, 1, 1, 1, 1, 1, 1, 1, 1, 1
317, 1.15287e-19, 1, 1, 0.691204, 0.998194, 1, 1, 0.331933, 5.01299e-19, 1, 7.56602e-06, 1, 1, 1, 1, 1, 1, 1, 0.998489, 0.999704, 1, 1, 1, 1, 1, 1, 1, 1, 1, 1, 1, 1, 1, 1, 1, 1, 1, 1
318, 1.34416e-19, 1, 1, 0.729179, 0.998186, 1, 1, 0.336866, 5.45738e-19, 1, 7.78701e-06, 1, 1, 1, 1, 1, 1, 1, 0.998426, 0.999759, 1, 1, 1, 1, 1, 1, 1, 1, 1, 1, 1, 1, 1, 1, 1, 1, 1, 1
319, 1.55048e-19, 1, 1, 0.762703, 0.99821, 1, 1, 0.341787, 5.94048e-19, 1, 8.01406e-06, 1, 1, 1, 1, 1, 1, 1, 0.998394, 0.999816, 1, 1, 1, 1, 1, 1, 1, 1, 1, 1, 1, 1, 1, 1, 1, 1, 1, 1
320, 1.77363e-19, 1, 1, 0.790345, 0.998211, 1, 1, 0.346695, 6.46287e-19, 1, 8.24572e-06, 1, 1, 1, 1, 1, 1, 1, 0.99836, 0.999851, 1, 1, 1, 1, 1, 1, 1, 1, 1, 1, 1, 1, 1, 1, 1, 1, 1, 1
321, 2.0279e-19, 1, 1, 0.819993, 0.998218, 1, 1, 0.35159, 7.02589e-19, 1, 8.48106e-06, 1, 1, 1, 1, 1, 1, 1, 0.998336, 0.999882, 1, 1, 1, 1, 1, 1, 1, 1, 1, 1, 1, 1, 1, 1, 1, 1, 1, 1
322, 2.27627e-19, 1, 1, 0.836808, 0.998215, 1, 1, 0.35647, 7.63503e-19, 1, 8.72147e-06, 1, 1, 1, 1, 1, 1, 1, 0.998301, 0.999914, 1, 1, 1, 1, 1, 1, 1, 1, 1, 1, 1, 1, 1, 1, 1, 1, 1, 1
323, 2.57473e-19, 1, 1, 0.857473, 0.998191, 1, 1, 0.361335, 8.29658e-19, 1, 8.96848e-06, 1, 1, 1, 1, 1, 1, 1, 0.998253, 0.999938, 1, 1, 1, 1, 1, 1, 1, 1, 1, 1, 1, 1, 1, 1, 1, 1, 1, 1
324, 2.91324e-19, 1, 1, 0.882697, 0.998176, 1, 1, 0.366184, 9.01467e-19, 1, 9.22222e-06, 1, 1, 1, 1, 1, 1, 1, 0.998221, 0.999955, 1, 1, 1, 1, 1, 1, 1, 1, 1, 1, 1, 1, 1, 1, 1, 1, 1, 1
325, 3.23329e-19, 1, 1, 0.890937, 0.998142, 1, 1, 0.371016, 9.78909e-19, 1, 9.48124e-06, 1, 1, 1, 1, 1, 1, 1, 0.998176, 0.999966, 1, 1, 1, 1, 1, 1, 1, 1, 1, 1, 1, 1, 1, 1, 1, 1, 1, 1
326, 3.62719e-19, 1, 1, 0.908157, 0.998107, 1, 1, 0.37583, 1.06191e-18, 1, 9.74404e-06, 1, 1, 1, 1, 1, 1, 1, 0.998133, 0.999974, 1, 1, 1, 1, 1, 1, 1, 1, 1, 1, 1, 1, 1, 1, 1, 1, 1, 1
327, 4.04063e-19, 1, 1, 0.923261, 0.998091, 1, 1, 0.380626, 1.15122e-18, 1, 1.00118e-05, 1, 1, 1, 1, 1, 1, 1, 0.998109, 0.999981, 1, 1, 1, 1, 1, 1, 1, 1, 1, 1, 1, 1, 1, 1, 1, 1, 1, 1
328, 4.45332e-19, 1, 1, 0.926632, 0.99806, 1, 1, 0.385404, 1.24789e-18, 1, 1.02864e-05, 1, 1, 1, 1, 1, 1, 1, 0.998073, 0.999986, 1, 1, 1, 1, 1, 1, 1, 1, 1, 1, 1, 1, 1, 1, 1, 1, 1, 1
329, 4.97661e-19, 1, 1, 0.942869, 0.99801, 1, 1, 0.390162, 1.35264e-18, 1, 1.05685e-05, 1, 1, 1, 1, 1, 1, 1, 0.99802, 0.99999, 1, 1, 1, 1, 1, 1, 1, 1, 1, 1, 1, 1, 1, 1, 1, 1, 1, 1
330, 5.50583e-19, 1, 1, 0.952806, 0.997983, 1, 1, 0.3949, 1.46573e-18, 1, 1.08569e-05, 1, 1, 1, 1, 1, 1, 1, 0.997991, 0.999993, 1, 1, 1, 1, 1, 1, 1, 1, 1, 1, 1, 1, 1, 1, 1, 1, 1, 1
331, 6.02928e-19, 1, 1, 0.951789, 0.99796, 1, 1, 0.399617, 1.58708e-18, 1, 1.11499e-05, 1, 1, 1, 1, 1, 1, 1, 0.997965, 0.999996, 1, 1, 1, 1, 1, 1, 1, 1, 1, 1, 1, 1, 1, 1, 1, 1, 1, 1
332, 6.67653e-19, 1, 1, 0.962039, 0.997863, 1, 1, 0.404313, 1.71739e-18, 1, 1.14476e-05, 1, 1, 1, 1, 1, 1, 1, 0.997865, 0.999997, 1, 1, 1, 1, 1, 1, 1, 1, 1, 1, 1, 1, 1, 1, 1, 1, 1, 1
333, 7.35958e-19, 1, 1, 0.970069, 0.997784, 1, 1, 0.408988, 1.85806e-18, 1, 1.17524e-05, 1, 1, 1, 1, 1, 1, 1, 0.997787, 0.999998, 1, 1, 1, 1, 1, 1, 1, 1, 1, 1, 1, 1, 1, 1, 1, 1, 1, 1
334, 8.06935e-19, 1, 0.999958, 0.971175, 0.997805, 1, 1, 0.41364, 2.01147e-18, 1, 1.20657e-05, 1, 1, 1, 1, 0.999958, 1, 1, 0.997808, 0.999998, 1, 1, 1, 1, 1, 1, 1, 1, 1, 1, 1, 1, 1, 1, 1, 1, 1, 1
335, 8.94062e-19, 1, 0.999827, 0.979221, 0.997797, 1, 1, 0.41827, 2.18516e-18, 1, 1.23901e-05, 1, 1, 1, 1, 0.999827, 1, 1, 0.997799, 0.999999, 1, 1, 1, 1, 1, 1, 1, 1, 1, 1, 1, 1, 1, 1, 1, 1, 1, 1
336, 9.91111e-19, 1, 0.999677, 0.984062, 0.997766, 1, 1, 0.422876, 2.38676e-18, 1, 1.27279e-05, 1, 1, 1, 1, 0.999677, 1, 1, 0.997766, 0.999999, 1, 1, 1, 1, 1, 1, 1, 1, 1, 1, 1, 1, 1, 1, 1, 1, 1, 1
337, 1.0943e-18, 1, 0.999594, 0.981175, 0.997748, 1, 1, 0.427459, 2.61485e-18, 1, 1.30778e-05, 1, 1, 1, 1, 0.999594, 1, 1, 0.997748, 1, 1, 1, 1, 1, 1, 1, 1, 1, 1, 1, 1, 1, 1, 1, 1, 1, 1, 1
338, 1.21594e-18, 1, 0.999542, 0.983601, 0.997653, 1, 1, 0.432018, 2.86619e-18, 1, 1.34378e-05, 1, 1, 1, 1, 0.999542, 1, 1, 0.997653, 1, 1, 1, 1, 1, 1, 1, 1, 1, 1, 1, 1, 1, 1, 1, 1, 1, 1, 1
339, 1.35518e-18, 1, 0.999447, 0.989083, 0.997531, 1, 1, 0.436553, 3.14542e-18, 1, 1.38086e-05, 1, 1, 1, 1, 0.999447, 1, 1, 0.997531, 1, 1, 1, 1, 1, 1, 1, 1, 1, 1, 1, 1, 1, 1, 1, 1, 1, 1, 1
340, 1.50864e-18, 1, 0.999258, 0.990132, 0.997457, 1, 1, 0.441063, 3.46391e-18, 1, 1.41928e-05, 1, 1, 1, 1, 0.999258, 1, 1, 0.997457, 1, 1, 1, 1, 1, 1, 1, 1, 1, 1, 1, 1, 1, 1, 1, 1, 1, 1, 1
341, 1.68666e-18, 1, 0.998952, 0.991516, 0.997427, 1, 1, 0.445548, 3.8283e-18, 1, 1.45912e-05, 1, 1, 1, 1, 0.998952, 1, 1, 0.997427, 1, 1, 1, 1, 1, 1, 1, 1, 1, 1, 1, 1, 1, 1, 1, 1, 1, 1, 1
342, 1.89035e-18, 1, 0.998574, 0.994622, 0.997497, 1, 1, 0.450007, 4.2366e-18, 1, 1.5002e-05, 1, 1, 1, 1, 0.998574, 1, 1, 0.997497, 1, 1, 1, 1, 1, 1, 1, 1, 1, 1, 1, 1, 1, 1, 1, 1, 1, 1, 1
343, 2.11153e-18, 1, 0.998289, 0.994621, 0.997564, 1, 1, 0.454441, 4.68878e-18, 1, 1.54246e-05, 1, 1, 1, 1, 0.998289, 1, 1, 0.997564, 0.999999, 1, 1, 1, 1, 1, 1, 1, 1, 1, 1, 1, 1, 1, 1, 1, 1, 1, 1
344, 2.35609e-18, 1, 0.998317, 0.993133, 0.997509, 1, 1, 0.458849, 5.18873e-18, 1, 1.58586e-05, 1, 1, 1, 1, 0.998317, 1, 1, 0.997509, 0.999999, 1, 1, 1, 1, 1, 1, 1, 1, 1, 1, 1, 1, 1, 1, 1, 1, 1, 1
345, 2.63527e-18, 1, 0.998709, 0.99443, 0.997399, 1, 1, 0.46323, 5.73805e-18, 1, 1.63019e-05, 1, 1, 1, 1, 0.998709, 1, 1, 0.997399, 1, 1, 1, 1, 1, 1, 1, 1, 1, 1, 1, 1, 1, 1, 1, 1, 1, 1, 1
346, 2.94639e-18, 1, 0.999204, 0.996909, 0.997291, 1, 1, 0.467585, 6.33822e-18, 1, 1.67519e-05, 1, 1, 1, 1, 0.999204, 1, 1, 0.997291, 1, 1, 1, 1, 1, 1, 1, 1, 1, 1, 1, 1, 1, 1, 1, 1, 1, 1, 1
347, 3.28607e-18, 1, 0.999536, 0.997958, 0.997172, 1, 1, 0.471913, 6.99622e-18, 1, 1.72105e-05, 1, 1, 1, 1, 0.999536, 1, 1, 0.997172, 1, 1, 1, 1, 1, 1, 1, 1, 1, 1, 1, 1, 1, 1, 1, 1, 1, 1, 1
348, 3.66162e-18, 1, 0.999682, 0.998392, 0.997085, 1, 1, 0.476214, 7.7215e-18, 1, 1.7681e-05, 1, 1, 1, 1, 0.999682, 1, 1, 0.997085, 1, 1, 1, 1, 1, 1, 1, 1, 1, 1, 1, 1, 1, 1, 1, 1, 1, 1, 1
349, 4.07957e-18, 1, 0.999713, 0.99897, 0.997159, 1, 1, 0.480488, 8.52052e-18, 1, 1.81636e-05, 1, 1, 1, 1, 0.999713, 1, 1, 0.997159, 1, 1, 1, 1, 1, 1, 1, 1, 1, 1, 1, 1, 1, 1, 1, 1, 1, 1, 1
350, 4.53891e-18, 1, 0.999681, 0.999203, 0.997254, 1, 1, 0.484734, 9.39485e-18, 1, 1.86562e-05, 1, 1, 1, 1, 0.999681, 1, 1, 0.997254, 0.999999, 1, 1, 1, 1, 1, 1, 1, 1, 1, 1, 1, 1, 1, 1, 1, 1, 1, 1
351, 5.04035e-18, 1, 0.999622, 0.998864, 0.997229, 1, 1, 0.488952, 1.03476e-17, 1, 1.91573e-05, 1, 1, 1, 1, 0.999622, 1, 1, 0.997229, 0.999999, 1, 1, 1, 1, 1, 1, 1, 1, 1, 1, 1, 1, 1, 1, 1, 1, 1, 1
352, 5.59473e-18, 1, 0.999531, 0.99866, 0.997247, 1, 1, 0.493143, 1.13907e-17, 1, 1.96692e-05, 1, 1, 1, 1, 0.999531, 1, 1, 0.997247, 1, 1, 1, 1, 1, 1, 1, 1, 1, 1, 1, 1, 1, 1, 1, 1, 1, 1, 1
353, 6.21198e-18, 1, 0.999397, 0.999118, 0.997189, 1, 1, 0.497307, 1.25381e-17, 1, 2.01943e-05, 1, 1, 1, 1, 0.999397, 1, 1, 0.99719, 1, 1, 1, 1, 1, 1, 1, 1, 1, 1, 1, 1, 1, 1, 1, 1, 1, 1, 1
354, 6.8936e-18, 1, 0.999209, 0.999611, 0.99697, 1, 1, 0.501441, 1.37987e-17, 1, 2.07324e-05, 1, 1, 1, 1, 0.999209, 1, 1, 0.996971, 0.999999, 1, 1, 1, 1, 1, 1, 1, 1, 1, 1, 1, 1, 1, 1, 1, 1, 1, 1
355, 7.64129e-18, 1, 0.998905, 0.999704, 0.996909, 1, 1, 0.505548, 1.51755e-17, 1, 2.12802e-05, 1, 1, 1, 1, 0.998905, 1, 1, 0.996909, 1, 1, 1, 1, 1, 1, 1, 1, 1, 1, 1, 1, 1, 1, 1, 1, 1, 1, 1
356, 8.45878e-18, 1, 0.998387, 0.999626, 0.996915, 1, 1, 0.509626, 1.66752e-17, 1, 2.18361e-05, 1, 1, 1, 1, 0.998387, 1, 1, 0.996915, 1, 1, 1, 1, 1, 1, 1, 1, 1, 1, 1, 1, 1, 1, 1, 1, 1, 1, 1
357, 9.35515e-18, 1, 0.997558, 0.999546, 0.99681, 1, 1, 0.513676, 1.83159e-17, 1, 2.24033e-05, 1, 1, 1, 1, 0.997558, 1, 1, 0.99681, 1, 1, 1, 1, 1, 1, 1, 1, 1, 1, 1, 1, 1, 1, 1, 1, 1, 1, 1
358, 1.03445e-17, 1, 0.996396, 0.999585, 0.996862, 1, 1, 0.517698, 2.01172e-17, 1, 2.2985e-05, 1, 1, 1, 1, 0.996396, 1, 1, 0.996862, 1, 1, 1, 1, 1, 1, 1, 1, 1, 1, 1, 1, 1, 1, 1, 1, 1, 1, 1
359, 1.14343e-17, 1, 0.995123, 0.999645, 0.997023, 1, 1, 0.521692, 2.209e-17, 1, 2.35804e-05, 1, 1, 1, 1, 0.995123, 1, 1, 0.997023, 0.999999, 1, 1, 1, 1, 1, 1, 1, 1, 1, 1, 1, 1, 1, 1, 1, 1, 1, 1
360, 1.26291e-17, 1, 0.994263, 0.999647, 0.996995, 1, 1, 0.525656, 2.42354e-17, 1, 2.41863e-05, 1, 1, 1, 1, 0.994263, 1, 1, 0.996996, 1, 1, 1, 1, 1, 1, 1, 1, 1, 1, 1, 1, 1, 1, 1, 1, 1, 1, 1
361, 1.39489e-17, 1, 0.994481, 0.999691, 0.996867, 1, 1, 0.529592, 2.65631e-17, 1, 2.48018e-05, 1, 1, 1, 1, 0.994481, 1, 1, 0.996867, 1, 1, 1, 1, 1, 1, 1, 1, 1, 1, 1, 1, 1, 1, 1, 1, 1, 1, 1
362, 1.54189e-17, 1, 0.995893, 0.99978, 0.996835, 1, 1, 0.533499, 2.91026e-17, 1, 2.54304e-05, 1, 1, 1, 1, 0.995893, 1, 1, 0.996836, 1, 1, 1, 1, 1, 1, 1, 1, 1, 1, 1, 1, 1, 1, 1, 1, 1, 1, 1
363, 1.70458e-17, 1, 0.997633, 0.999854, 0.996846, 1, 1, 0.537377, 3.18838e-17, 1, 2.60746e-05, 1, 1, 1, 1, 0.997633, 1, 1, 0.996847, 0.999999, 1, 1, 1, 1, 1, 1, 1, 1, 1, 1, 1, 1, 1, 1, 1, 1, 1, 1
364, 1.8825e-17, 1, 0.998847, 0.999882, 0.996736, 1, 1, 0.541227, 3.4924e-17, 1, 2.67338e-05, 1, 1, 1, 1, 0.998847, 1, 1, 0.996737, 1, 1, 1, 1, 1, 1, 1, 1, 1, 1, 1, 1, 1, 1, 1, 1, 1, 1, 1
365, 2.07592e-17, 1, 0.999465, 0.999904, 0.996587, 1, 1, 0.545047, 3.82249e-17, 1, 2.74042e-05, 1, 1, 1, 1, 0.999465, 1, 1, 0.996587, 1, 1, 1, 1, 1, 1, 1, 1, 1, 1, 1, 1, 1, 1, 1, 1, 1, 1, 1
366, 2.28653e-17, 1, 0.999745, 0.999962, 0.996613, 1, 1, 0.54884, 4.17972e-17, 1, 2.8084e-05, 1, 1, 1, 1, 0.999745, 1, 1, 0.996613, 1, 1, 1, 1, 1, 1, 1, 1, 1, 1, 1, 1, 1, 1, 1, 1, 1, 1, 1
367, 2.51676e-17, 1, 0.999863, 0.999998, 0.996685, 1, 1, 0.552603, 4.56832e-17, 1, 2.8777e-05, 1, 1, 1, 1, 0.999863, 1, 1, 0.996685, 1, 1, 1, 1, 1, 1, 1, 1, 1, 1, 1, 1, 1, 1, 1, 1, 1, 1, 1
368, 2.76931e-17, 1, 0.999904, 1, 0.996686, 1, 1, 0.556337, 4.99283e-17, 1, 2.94866e-05, 1, 1, 1, 1, 0.999904, 1, 1, 0.996686, 1, 1, 1, 1, 1, 1, 1, 1, 1, 1, 1, 1, 1, 1, 1, 1, 1, 1, 1
369, 3.04639e-17, 1, 0.99991, 1, 0.996706, 1, 1, 0.560043, 5.4559e-17, 1, 3.02124e-05, 1, 1, 1, 1, 0.99991, 1, 1, 0.996707, 1, 1, 1, 1, 1, 1, 1, 1, 1, 1, 1, 1, 1, 1, 1, 1, 1, 1, 1
370, 3.3487e-17, 1, 0.99991, 1, 0.996725, 1, 1, 0.56372, 5.95817e-17, 1, 3.09504e-05, 1, 1, 1, 1, 0.99991, 1, 1, 0.996725, 0.999999, 1, 1, 1, 1, 1, 1, 1, 1, 1, 1, 1, 1, 1, 1, 1, 1, 1, 1
371, 3.67727e-17, 1, 0.999911, 1, 0.996627, 1, 1, 0.567369, 6.50148e-17, 1, 3.16986e-05, 1, 1, 1, 1, 0.999911, 1, 1, 0.996627, 1, 1, 1, 1, 1, 1, 1, 1, 1, 1, 1, 1, 1, 1, 1, 1, 1, 1, 1
372, 4.03617e-17, 1, 0.99991, 1, 0.996491, 1, 1, 0.570988, 7.09174e-17, 1, 3.24611e-05, 1, 1, 1, 1, 0.99991, 1, 1, 0.996491, 1, 1, 1, 1, 1, 1, 1, 1, 1, 1, 1, 1, 1, 1, 1, 1, 1, 1, 1
373, 4.43032e-17, 1, 0.999895, 1, 0.996537, 1, 1, 0.57458, 7.73531e-17, 1, 3.32415e-05, 1, 1, 1, 1, 0.999895, 1, 1, 0.996538, 1, 1, 1, 1, 1, 1, 1, 1, 1, 1, 1, 1, 1, 1, 1, 1, 1, 1, 1
374, 4.86187e-17, 1, 0.999843, 1, 0.996631, 1, 1, 0.578143, 8.4363e-17, 1, 3.40398e-05, 1, 1, 1, 1, 0.999843, 1, 1, 0.996631, 1, 1, 1, 1, 1, 1, 1, 1, 1, 1, 1, 1, 1, 1, 1, 1, 1, 1, 1
375, 5.32985e-17, 1, 0.999715, 1, 0.996502, 1, 1, 0.581677, 9.19478e-17, 1, 3.48521e-05, 1, 1, 1, 1, 0.999715, 1, 1, 0.996503, 0.999999, 1, 1, 1, 1, 1, 1, 1, 1, 1, 1, 1, 1, 1, 1, 1, 1, 1, 1
376, 5.83544e-17, 1, 0.999425, 1, 0.996345, 1, 1, 0.585182, 1.00113e-16, 1, 3.5675e-05, 1, 1, 1, 1, 0.999425, 1, 1, 0.996345, 1, 1, 1, 1, 1, 1, 1, 1, 1, 1, 1, 1, 1, 1, 1, 1, 1, 1, 1
377, 6.38485e-17, 1, 0.998852, 1, 0.996468, 1, 1, 0.588661, 1.08941e-16, 1, 3.6512e-05, 1, 1, 1, 1, 0.998852, 1, 1, 0.996468, 1, 1, 1, 1, 1, 1, 1, 1, 1, 1, 1, 1, 1, 1, 1, 1, 1, 1, 1
378, 6.98274e-17, 1, 0.997993, 1, 0.996618, 1, 1, 0.59211, 1.18536e-16, 1, 3.73678e-05, 1, 1, 1, 1, 0.997993, 1, 1, 0.996618, 1, 1, 1, 1, 1, 1, 1, 1, 1, 1, 1, 1, 1, 1, 1, 1, 1, 1, 1
379, 7.63344e-17, 1, 0.997116, 1, 0.996475, 1, 1, 0.595532, 1.28971e-16, 1, 3.82432e-05, 1, 1, 1, 1, 0.997116, 1, 1, 0.996475, 1, 1, 1, 1, 1, 1, 1, 1, 1, 1, 1, 1, 1, 1, 1, 1, 1, 1, 1
380, 8.34434e-17, 1, 0.99671, 1, 0.996292, 1, 1, 0.598925, 1.40259e-16, 1, 3.91349e-05, 1, 1, 1, 1, 0.99671, 1, 1, 0.996292, 1, 1, 1, 1, 1, 1, 1, 1, 1, 1, 1, 1, 1, 1, 1, 1, 1, 1, 1
381, 9.1218e-17, 1, 0.997067, 1, 0.996333, 1, 1, 0.602291, 1.52402e-16, 1, 4.00388e-05, 1, 1, 1, 1, 0.997067, 1, 1, 0.996333, 1, 1, 1, 1, 1, 1, 1, 1, 1, 1, 1, 1, 1, 1, 1, 1, 1, 1, 1
382, 9.97056e-17, 1, 0.997938, 1, 0.996468, 1, 1, 0.605629, 1.65496e-16, 1, 4.0957e-05, 1, 1, 1, 1, 0.997938, 1, 1, 0.996468, 1, 1, 1, 1, 1, 1, 1, 1, 1, 1, 1, 1, 1, 1, 1, 1, 1, 1, 1
383, 1.08942e-16, 1, 0.998807, 1, 0.996482, 1, 1, 0.60894, 1.79691e-16, 1, 4.18948e-05, 1, 1, 1, 1, 0.998807, 1, 1, 0.996483, 0.999999, 1, 1, 1, 1, 1, 1, 1, 1, 1, 1, 1, 1, 1, 1, 1, 1, 1, 1
384, 1.18947e-16, 1, 0.999389, 1, 0.996368, 1, 1, 0.612222, 1.95056e-16, 1, 4.28515e-05, 1, 1, 1, 1, 0.999389, 1, 1, 0.996368, 1, 1, 1, 1, 1, 1, 1, 1, 1, 1, 1, 1, 1, 1, 1, 1, 1, 1, 1
385, 1.29747e-16, 1, 0.999697, 1, 0.996327, 1, 1, 0.615477, 2.11586e-16, 1, 4.38221e-05, 1, 1, 1, 1, 0.999697, 1, 1, 0.996327, 1, 1, 1, 1, 1, 1, 1, 1, 1, 1, 1, 1, 1, 1, 1, 1, 1, 1, 1
386, 1.41405e-16, 1, 0.999843, 1, 0.99639, 1, 1, 0.618705, 2.29349e-16, 1, 4.48058e-05, 1, 1, 1, 1, 0.999843, 1, 1, 0.99639, 1, 1, 1, 1, 1, 1, 1, 1, 1, 1, 1, 1, 1, 1, 1, 1, 1, 1, 1
387, 1.54033e-16, 1, 0.999899, 1, 0.996385, 1, 1, 0.621905, 2.48535e-16, 1, 4.5808e-05, 1, 1, 1, 1, 0.999899, 1, 1, 0.996385, 1, 1, 1, 1, 1, 1, 1, 1, 1, 1, 1, 1, 1, 1, 1, 1, 1, 1, 1
388, 1.67757e-16, 0.999998, 0.999911, 1, 0.996317, 1, 1, 0.625079, 2.69323e-16, 1, 4.68325e-05, 1, 1, 1, 1, 0.999911, 1, 1, 0.996317, 1, 1, 1, 1, 1, 1, 1, 1, 1, 1, 1, 1, 1, 1, 1, 1, 1, 1, 1
389, 1.82675e-16, 0.999987, 0.999911, 1, 0.99627, 1, 1, 0.628226, 2.91822e-16, 1, 4.78782e-05, 1, 1, 1, 1, 0.999911, 1, 1, 0.99627, 1, 1, 1, 1, 1, 1, 1, 1, 1, 1, 1, 1, 1, 1, 1, 1, 1, 1, 1
390, 1.98827e-16, 0.999965, 0.999924, 1, 0.996253, 1, 1, 0.631346, 3.16064e-16, 1, 4.89393e-05, 1, 1, 1, 1, 0.999924, 1, 1, 0.996254, 1, 1, 1, 1, 1, 1, 1, 1, 1, 1, 1, 1, 1, 1, 1, 1, 1, 1, 1
391, 2.16262e-16, 0.999952, 0.999957, 1, 0.996216, 1, 1, 0.634438, 3.42112e-16, 1, 5.00118e-05, 1, 1, 1, 1, 0.999957, 1, 1, 0.996216, 1, 1, 1, 1, 1, 1, 1, 1, 1, 1, 1, 1, 1, 1, 1, 1, 1, 1, 1
392, 2.3516e-16, 0.999956, 0.999988, 1, 0.996241, 1, 1, 0.637505, 3.70192e-16, 1, 5.11011e-05, 1, 1, 1, 1, 0.999988, 1, 1, 0.996241, 1, 1, 1, 1, 1, 1, 1, 1, 1, 1, 1, 1, 1, 1, 1, 1, 1, 1, 1
393, 2.55713e-16, 0.999967, 0.999999, 1, 0.996407, 1, 1, 0.640546, 4.00561e-16, 1, 5.22133e-05, 1, 1, 1, 1, 0.999999, 1, 1, 0.996407, 1, 1, 1, 1, 1, 1, 1, 1, 1, 1, 1, 1, 1, 1, 1, 1, 1, 1, 1
394, 2.78004e-16, 0.999979, 1, 1, 0.99648, 1, 1, 0.64356, 4.3341e-16, 1, 5.33495e-05, 1, 1, 1, 1, 1, 1, 1, 0.99648, 1, 1, 1, 1, 1, 1, 1, 1, 1, 1, 1, 1, 1, 1, 1, 1, 1, 1, 1
395, 3.0203e-16, 0.999966, 1, 1, 0.996365, 1, 1, 0.646548, 4.68757e-16, 1, 5.45064e-05, 1, 1, 1, 1, 1, 1, 1, 0.996365, 1, 1, 1, 1, 1, 1, 1, 1, 1, 1, 1, 1, 1, 1, 1, 1, 1, 1, 1
396, 3.27788e-16, 0.999851, 1, 1, 0.996328, 1, 1, 0.64951, 5.06492e-16, 1, 5.56787e-05, 1, 1, 1, 1, 1, 1, 1, 0.996328, 1, 1, 1, 1, 1, 1, 1, 1, 1, 1, 1, 1, 1, 1, 1, 1, 1, 1, 1
397, 3.55422e-16, 0.999693, 1, 1, 0.996328, 1, 1, 0.652447, 5.46811e-16, 1, 5.68673e-05, 1, 1, 1, 1, 1, 1, 1, 0.996328, 1, 1, 1, 1, 1, 1, 1, 1, 1, 1, 1, 1, 1, 1, 1, 1, 1, 1, 1
398, 3.85279e-16, 0.999655, 1, 1, 0.996224, 1, 1, 0.655358, 5.90194e-16, 1, 5.80784e-05, 1, 1, 1, 1, 1, 1, 1, 0.996224, 1, 1, 1, 1, 1, 1, 1, 1, 1, 1, 1, 1, 1, 1, 1, 1, 1, 1, 1
399, 4.17628e-16, 0.999703, 0.999986, 1, 0.996142, 1, 1, 0.658243, 6.36976e-16, 1, 5.93137e-05, 1, 1, 1, 1, 0.999986, 1, 1, 0.996142, 1, 1, 1, 1, 1, 1, 1, 1, 1, 1, 1, 1, 1, 1, 1, 1, 1, 1, 1
400, 4.52532e-16, 0.99977, 0.999953, 1, 0.996056, 1, 1, 0.661104, 6.87267e-16, 1, 6.05676e-05, 1, 1, 1, 1, 0.999953, 1, 1, 0.996056, 1, 1, 1, 1, 1, 1, 1, 1, 1, 1, 1, 1, 1, 1, 1, 1, 1, 1, 1
401, 4.90213e-16, 0.999856, 0.999925, 1, 0.996107, 1, 1, 0.663939, 7.41222e-16, 1, 6.18362e-05, 1, 1, 1, 1, 0.999925, 1, 1, 0.996107, 1, 1, 1, 1, 1, 1, 1, 1, 1, 1, 1, 1, 1, 1, 1, 1, 1, 1, 1
402, 5.30992e-16, 0.999917, 0.999915, 1, 0.99637, 1, 1, 0.666748, 7.99246e-16, 1, 6.3125e-05, 1, 1, 1, 1, 0.999915, 1, 1, 0.99637, 1, 1, 1, 1, 1, 1, 1, 1, 1, 1, 1, 1, 1, 1, 1, 1, 1, 1, 1
403, 5.75011e-16, 0.999951, 0.999912, 1, 0.996499, 1, 1, 0.669533, 8.61783e-16, 1, 6.44397e-05, 1, 1, 1, 1, 0.999912, 1, 1, 0.996499, 1, 1, 1, 1, 1, 1, 1, 1, 1, 1, 1, 1, 1, 1, 1, 1, 1, 1, 1
