case index 53 = {
num freq, 1701
num column, 38
Waveln,  combin,  H2O,  umix,  O3,  trace,  N2,  H2Ocnt,  molec,  aercld,  HNO3,  aercld,  CO2,  CO,  CH4,  N2O,  O2,  NH3,  NO,  NO2,  SO2,  cloud,  F11,  F12,  CCl3F,  CF4,  F22,  F113,  F114,  R115,  ClONO2,  HNO4,  CHCl2F,  CCl4,  N2O5,  H2-H2,  H2-HE,  H2-CH4,  CH4-CH4
  [nm],  trans,  trans,  trans,  trans,  trans,  trans,  trans,  scat,  trans,  trans,  abtrns,  trans,  trans,  trans,  trans,  trans,  trans,  trans,  trans,  trans,  trans,  trans,  trans,  trans,  trans,  trans,  trans,  trans,  trans,  trans,  trans,  trans,  trans,  trans,  trans,  trans,  trans,  trans
300, 2.27126e-06, 1, 1, 0.000116321, 0.992606, 1, 1, 0.0298372, 0.633538, 1, 0.934907, 1, 1, 1, 1, 1, 1, 1, 0.997953, 0.994643, 1, 1, 1, 1, 1, 1, 1, 1, 1, 1, 1, 1, 1, 1, 1, 1, 1, 1
301, 7.05535e-06, 1, 1, 0.000345686, 0.993306, 1, 1, 0.0313687, 0.634146, 1, 0.935221, 1, 1, 1, 1, 1, 1, 1, 0.997904, 0.995393, 1, 1, 1, 1, 1, 1, 1, 1, 1, 1, 1, 1, 1, 1, 1, 1, 1, 1
302, 2.04579e-05, 1, 1, 0.000954425, 0.99363, 1, 1, 0.0329489, 0.63481, 1, 0.935476, 1, 1, 1, 1, 1, 1, 1, 0.997753, 0.995867, 1, 1, 1, 1, 1, 1, 1, 1, 1, 1, 1, 1, 1, 1, 1, 1, 1, 1
303, 4.93982e-05, 1, 1, 0.00220823, 0.993758, 1, 1, 0.0345783, 0.635481, 1, 0.935722, 1, 1, 1, 1, 1, 1, 1, 0.997583, 0.996166, 1, 1, 1, 1, 1, 1, 1, 1, 1, 1, 1, 1, 1, 1, 1, 1, 1, 1
304, 0.000111999, 1, 1, 0.00477116, 0.993999, 1, 1, 0.0362568, 0.636152, 1, 0.935967, 1, 1, 1, 1, 1, 1, 1, 0.997489, 0.996501, 1, 1, 1, 1, 1, 1, 1, 1, 1, 1, 1, 1, 1, 1, 1, 1, 1, 1
305, 0.000227942, 1, 1, 0.00930094, 0.994262, 1, 1, 0.0379846, 0.63682, 1, 0.936209, 1, 1, 1, 1, 1, 1, 1, 0.997452, 0.996802, 1, 1, 1, 1, 1, 1, 1, 1, 1, 1, 1, 1, 1, 1, 1, 1, 1, 1
306, 0.000426395, 1, 1, 0.0166309, 0.994381, 1, 1, 0.0397619, 0.637482, 1, 0.936445, 1, 1, 1, 1, 1, 1, 1, 0.997411, 0.996962, 1, 1, 1, 1, 1, 1, 1, 1, 1, 1, 1, 1, 1, 1, 1, 1, 1, 1
307, 0.000757304, 1, 1, 0.0282579, 0.994484, 1, 1, 0.0415887, 0.638141, 1, 0.936678, 1, 1, 1, 1, 1, 1, 1, 0.997345, 0.997131, 1, 1, 1, 1, 1, 1, 1, 1, 1, 1, 1, 1, 1, 1, 1, 1, 1, 1
308, 0.00122199, 1, 1, 0.0437301, 0.994714, 1, 1, 0.0434649, 0.638801, 1, 0.936911, 1, 1, 1, 1, 1, 1, 1, 0.997253, 0.997454, 1, 1, 1, 1, 1, 1, 1, 1, 1, 1, 1, 1, 1, 1, 1, 1, 1, 1
309, 0.00190463, 1, 1, 0.0652025, 0.994777, 1, 1, 0.0453906, 0.63946, 1, 0.937143, 1, 1, 1, 1, 1, 1, 1, 0.99711, 0.99766, 1, 1, 1, 1, 1, 1, 1, 1, 1, 1, 1, 1, 1, 1, 1, 1, 1, 1
310, 0.00282691, 1, 1, 0.0928889, 0.994885, 1, 1, 0.0473656, 0.640115, 1, 0.937371, 1, 1, 1, 1, 1, 1, 1, 0.996977, 0.997901, 1, 1, 1, 1, 1, 1, 1, 1, 1, 1, 1, 1, 1, 1, 1, 1, 1, 1
311, 0.00394843, 1, 1, 0.124407, 0.995075, 1, 1, 0.0493899, 0.640762, 1, 0.937597, 1, 1, 1, 1, 1, 1, 1, 0.996883, 0.998186, 1, 1, 1, 1, 1, 1, 1, 1, 1, 1, 1, 1, 1, 1, 1, 1, 1, 1
312, 0.00542412, 1, 1, 0.163867, 0.99526, 1, 1, 0.0514633, 0.641407, 1, 0.937821, 1, 1, 1, 1, 1, 1, 1, 0.996789, 0.998466, 1, 1, 1, 1, 1, 1, 1, 1, 1, 1, 1, 1, 1, 1, 1, 1, 1, 1
313, 0.00713492, 1, 1, 0.207177, 0.995396, 1, 1, 0.0535856, 0.642054, 1, 0.938045, 1, 1, 1, 1, 1, 1, 1, 0.996734, 0.998658, 1, 1, 1, 1, 1, 1, 1, 1, 1, 1, 1, 1, 1, 1, 1, 1, 1, 1
314, 0.00910436, 1, 1, 0.253826, 0.995529, 1, 1, 0.0557566, 0.642698, 1, 0.938269, 1, 1, 1, 1, 1, 1, 1, 0.996661, 0.998864, 1, 1, 1, 1, 1, 1, 1, 1, 1, 1, 1, 1, 1, 1, 1, 1, 1, 1
315, 0.0113593, 1, 1, 0.304595, 0.995581, 1, 1, 0.057976, 0.643338, 1, 0.938489, 1, 1, 1, 1, 1, 1, 1, 0.99654, 0.999038, 1, 1, 1, 1, 1, 1, 1, 1, 1, 1, 1, 1, 1, 1, 1, 1, 1, 1
316, 0.0137155, 1, 1, 0.353832, 0.995571, 1, 1, 0.0602435, 0.643972, 1, 0.938707, 1, 1, 1, 1, 1, 1, 1, 0.996435, 0.999134, 1, 1, 1, 1, 1, 1, 1, 1, 1, 1, 1, 1, 1, 1, 1, 1, 1, 1
317, 0.0162167, 1, 1, 0.402683, 0.995532, 1, 1, 0.0625588, 0.644602, 1, 0.938922, 1, 1, 1, 1, 1, 1, 1, 0.996274, 0.999256, 1, 1, 1, 1, 1, 1, 1, 1, 1, 1, 1, 1, 1, 1, 1, 1, 1, 1
318, 0.0192539, 1, 1, 0.460088, 0.995515, 1, 1, 0.0649215, 0.645233, 1, 0.939137, 1, 1, 1, 1, 1, 1, 1, 0.996119, 0.999393, 1, 1, 1, 1, 1, 1, 1, 1, 1, 1, 1, 1, 1, 1, 1, 1, 1, 1
319, 0.0222753, 1, 1, 0.513463, 0.995579, 1, 1, 0.0673311, 0.645864, 1, 0.939352, 1, 1, 1, 1, 1, 1, 1, 0.99604, 0.999536, 1, 1, 1, 1, 1, 1, 1, 1, 1, 1, 1, 1, 1, 1, 1, 1, 1, 1
320, 0.0252557, 1, 1, 0.56093, 0.99558, 1, 1, 0.0697874, 0.64649, 1, 0.939565, 1, 1, 1, 1, 1, 1, 1, 0.995954, 0.999625, 1, 1, 1, 1, 1, 1, 1, 1, 1, 1, 1, 1, 1, 1, 1, 1, 1, 1
321, 0.0286746, 1, 1, 0.614465, 0.995599, 1, 1, 0.0722898, 0.647111, 1, 0.939775, 1, 1, 1, 1, 1, 1, 1, 0.995896, 0.999702, 1, 1, 1, 1, 1, 1, 1, 1, 1, 1, 1, 1, 1, 1, 1, 1, 1, 1
322, 0.0311427, 1, 1, 0.645021, 0.995594, 1, 1, 0.0748377, 0.647729, 1, 0.939983, 1, 1, 1, 1, 1, 1, 1, 0.995809, 0.999783, 1, 1, 1, 1, 1, 1, 1, 1, 1, 1, 1, 1, 1, 1, 1, 1, 1, 1
323, 0.0343862, 1, 1, 0.686395, 0.995537, 1, 1, 0.0774307, 0.648347, 1, 0.940189, 1, 1, 1, 1, 1, 1, 1, 0.995694, 0.999843, 1, 1, 1, 1, 1, 1, 1, 1, 1, 1, 1, 1, 1, 1, 1, 1, 1, 1
324, 0.0381168, 1, 1, 0.736279, 0.995499, 1, 1, 0.0800683, 0.648965, 1, 0.940397, 1, 1, 1, 1, 1, 1, 1, 0.995613, 0.999886, 1, 1, 1, 1, 1, 1, 1, 1, 1, 1, 1, 1, 1, 1, 1, 1, 1, 1
325, 0.0402852, 1, 1, 0.752672, 0.995416, 1, 1, 0.0827498, 0.649579, 1, 0.940602, 1, 1, 1, 1, 1, 1, 1, 0.995502, 0.999913, 1, 1, 1, 1, 1, 1, 1, 1, 1, 1, 1, 1, 1, 1, 1, 1, 1, 1
326, 0.0437454, 1, 1, 0.789485, 0.995332, 1, 1, 0.0854748, 0.650187, 1, 0.940804, 1, 1, 1, 1, 1, 1, 1, 0.995396, 0.999935, 1, 1, 1, 1, 1, 1, 1, 1, 1, 1, 1, 1, 1, 1, 1, 1, 1, 1
327, 0.0469558, 1, 1, 0.821484, 0.995293, 1, 1, 0.0882425, 0.650791, 1, 0.941004, 1, 1, 1, 1, 1, 1, 1, 0.995338, 0.999954, 1, 1, 1, 1, 1, 1, 1, 1, 1, 1, 1, 1, 1, 1, 1, 1, 1, 1
328, 0.0489669, 1, 1, 0.829195, 0.995216, 1, 1, 0.0910523, 0.651394, 1, 0.941204, 1, 1, 1, 1, 1, 1, 1, 0.995249, 0.999966, 1, 1, 1, 1, 1, 1, 1, 1, 1, 1, 1, 1, 1, 1, 1, 1, 1, 1
329, 0.0528082, 1, 1, 0.865712, 0.995092, 1, 1, 0.0939036, 0.651997, 1, 0.941404, 1, 1, 1, 1, 1, 1, 1, 0.995118, 0.999974, 1, 1, 1, 1, 1, 1, 1, 1, 1, 1, 1, 1, 1, 1, 1, 1, 1, 1
330, 0.0557818, 1, 1, 0.887659, 0.995026, 1, 1, 0.0967955, 0.6526, 1, 0.941603, 1, 1, 1, 1, 1, 1, 1, 0.995045, 0.999981, 1, 1, 1, 1, 1, 1, 1, 1, 1, 1, 1, 1, 1, 1, 1, 1, 1, 1
331, 0.0573928, 1, 1, 0.885345, 0.99497, 1, 1, 0.0997276, 0.653196, 1, 0.941799, 1, 1, 1, 1, 1, 1, 1, 0.994982, 0.999988, 1, 1, 1, 1, 1, 1, 1, 1, 1, 1, 1, 1, 1, 1, 1, 1, 1, 1
332, 0.0607764, 1, 1, 0.909211, 0.99473, 1, 1, 0.102699, 0.653788, 1, 0.941992, 1, 1, 1, 1, 1, 1, 1, 0.994736, 0.999993, 1, 1, 1, 1, 1, 1, 1, 1, 1, 1, 1, 1, 1, 1, 1, 1, 1, 1
333, 0.0638273, 1, 1, 0.92779, 0.994537, 1, 1, 0.105709, 0.654378, 1, 0.942185, 1, 1, 1, 1, 1, 1, 1, 0.994543, 0.999994, 1, 1, 1, 1, 1, 1, 1, 1, 1, 1, 1, 1, 1, 1, 1, 1, 1, 1
334, 0.0659241, 1, 0.999894, 0.930424, 0.99459, 1, 1, 0.108757, 0.654973, 1, 0.942375, 1, 1, 1, 1, 0.999894, 1, 1, 0.994595, 0.999995, 1, 1, 1, 1, 1, 1, 1, 1, 1, 1, 1, 1, 1, 1, 1, 1, 1, 1
335, 0.0692568, 1, 0.999562, 0.949605, 0.994569, 1, 1, 0.111842, 0.655594, 1, 0.942559, 1, 1, 1, 1, 0.999562, 1, 1, 0.994573, 0.999996, 1, 1, 1, 1, 1, 1, 1, 1, 1, 1, 1, 1, 1, 1, 1, 1, 1, 1
336, 0.0720439, 1, 0.999185, 0.961094, 0.994492, 1, 1, 0.114963, 0.656259, 1, 0.942729, 1, 1, 1, 1, 0.999185, 1, 1, 0.994494, 0.999998, 1, 1, 1, 1, 1, 1, 1, 1, 1, 1, 1, 1, 1, 1, 1, 1, 1, 1
337, 0.0735455, 1, 0.998974, 0.95415, 0.994449, 1, 1, 0.11812, 0.65695, 1, 0.942894, 1, 1, 1, 1, 0.998974, 1, 1, 0.99445, 0.999999, 1, 1, 1, 1, 1, 1, 1, 1, 1, 1, 1, 1, 1, 1, 1, 1, 1, 1
338, 0.0760868, 1, 0.998844, 0.960029, 0.994215, 1, 1, 0.121311, 0.657646, 1, 0.943056, 1, 1, 1, 1, 0.998844, 1, 1, 0.994216, 1, 1, 1, 1, 1, 1, 1, 1, 1, 1, 1, 1, 1, 1, 1, 1, 1, 1, 1
339, 0.0792129, 1, 0.998605, 0.973266, 0.993916, 1, 1, 0.124537, 0.658351, 1, 0.943215, 1, 1, 1, 1, 0.998605, 1, 1, 0.993916, 1, 1, 1, 1, 1, 1, 1, 1, 1, 1, 1, 1, 1, 1, 1, 1, 1, 1, 1
340, 0.0815167, 1, 0.99813, 0.975779, 0.993733, 1, 1, 0.127795, 0.659084, 1, 0.943366, 1, 1, 1, 1, 0.99813, 1, 1, 0.993733, 1, 1, 1, 1, 1, 1, 1, 1, 1, 1, 1, 1, 1, 1, 1, 1, 1, 1, 1
341, 0.0839485, 1, 0.997358, 0.979165, 0.993658, 1, 1, 0.131086, 0.659847, 1, 0.943508, 1, 1, 1, 1, 0.997358, 1, 1, 0.993658, 1, 1, 1, 1, 1, 1, 1, 1, 1, 1, 1, 1, 1, 1, 1, 1, 1, 1, 1
342, 0.0867738, 1, 0.996408, 0.986759, 0.993831, 1, 1, 0.134408, 0.660622, 1, 0.943645, 1, 1, 1, 1, 0.996408, 1, 1, 0.993832, 1, 1, 1, 1, 1, 1, 1, 1, 1, 1, 1, 1, 1, 1, 1, 1, 1, 1, 1
343, 0.0889758, 1, 0.995692, 0.98675, 0.993996, 1, 1, 0.137761, 0.661399, 1, 0.943784, 1, 1, 1, 1, 0.995692, 1, 1, 0.993996, 0.999999, 1, 1, 1, 1, 1, 1, 1, 1, 1, 1, 1, 1, 1, 1, 1, 1, 1, 1
344, 0.0909321, 1, 0.995763, 0.983103, 0.993861, 1, 1, 0.141144, 0.662177, 1, 0.943921, 1, 1, 1, 1, 0.995763, 1, 1, 0.993861, 0.999999, 1, 1, 1, 1, 1, 1, 1, 1, 1, 1, 1, 1, 1, 1, 1, 1, 1, 1
345, 0.0936229, 1, 0.996748, 0.986287, 0.993589, 1, 1, 0.144555, 0.66295, 1, 0.944059, 1, 1, 1, 1, 0.996748, 1, 1, 0.993589, 1, 1, 1, 1, 1, 1, 1, 1, 1, 1, 1, 1, 1, 1, 1, 1, 1, 1, 1
346, 0.0966428, 1, 0.997995, 0.992373, 0.993323, 1, 1, 0.147995, 0.663717, 1, 0.944194, 1, 1, 1, 1, 0.997995, 1, 1, 0.993324, 1, 1, 1, 1, 1, 1, 1, 1, 1, 1, 1, 1, 1, 1, 1, 1, 1, 1, 1
347, 0.0993241, 1, 0.99883, 0.994955, 0.993031, 1, 1, 0.151462, 0.664478, 1, 0.944329, 1, 1, 1, 1, 0.99883, 1, 1, 0.993031, 1, 1, 1, 1, 1, 1, 1, 1, 1, 1, 1, 1, 1, 1, 1, 1, 1, 1, 1
348, 0.101857, 1, 0.999198, 0.996026, 0.992816, 1, 1, 0.154955, 0.665239, 1, 0.944462, 1, 1, 1, 1, 0.999198, 1, 1, 0.992816, 0.999999, 1, 1, 1, 1, 1, 1, 1, 1, 1, 1, 1, 1, 1, 1, 1, 1, 1, 1
349, 0.104466, 1, 0.999275, 0.997454, 0.993, 1, 1, 0.158473, 0.665999, 1, 0.944596, 1, 1, 1, 1, 0.999275, 1, 1, 0.993001, 1, 1, 1, 1, 1, 1, 1, 1, 1, 1, 1, 1, 1, 1, 1, 1, 1, 1, 1
350, 0.106998, 1, 0.999196, 0.998029, 0.993233, 1, 1, 0.162017, 0.666754, 1, 0.944729, 1, 1, 1, 1, 0.999196, 1, 1, 0.993234, 0.999999, 1, 1, 1, 1, 1, 1, 1, 1, 1, 1, 1, 1, 1, 1, 1, 1, 1, 1
351, 0.109359, 1, 0.999047, 0.997192, 0.993171, 1, 1, 0.165584, 0.6675, 1, 0.944861, 1, 1, 1, 1, 0.999047, 1, 1, 0.993171, 0.999999, 1, 1, 1, 1, 1, 1, 1, 1, 1, 1, 1, 1, 1, 1, 1, 1, 1, 1
352, 0.11178, 1, 0.998817, 0.996686, 0.993215, 1, 1, 0.169174, 0.668242, 1, 0.944992, 1, 1, 1, 1, 0.998817, 1, 1, 0.993216, 0.999999, 1, 1, 1, 1, 1, 1, 1, 1, 1, 1, 1, 1, 1, 1, 1, 1, 1, 1
353, 0.114369, 1, 0.998481, 0.997818, 0.993074, 1, 1, 0.172786, 0.668984, 1, 0.945124, 1, 1, 1, 1, 0.998481, 1, 1, 0.993074, 0.999999, 1, 1, 1, 1, 1, 1, 1, 1, 1, 1, 1, 1, 1, 1, 1, 1, 1, 1
354, 0.116925, 1, 0.998006, 0.999037, 0.992536, 1, 1, 0.176419, 0.669725, 1, 0.945254, 1, 1, 1, 1, 0.998006, 1, 1, 0.992537, 0.999999, 1, 1, 1, 1, 1, 1, 1, 1, 1, 1, 1, 1, 1, 1, 1, 1, 1, 1
355, 0.119395, 1, 0.997241, 0.999267, 0.992386, 1, 1, 0.180073, 0.670461, 1, 0.945383, 1, 1, 1, 1, 0.997241, 1, 1, 0.992387, 0.999999, 1, 1, 1, 1, 1, 1, 1, 1, 1, 1, 1, 1, 1, 1, 1, 1, 1, 1
356, 0.12178, 1, 0.995939, 0.999075, 0.992401, 1, 1, 0.183746, 0.671191, 1, 0.945512, 1, 1, 1, 1, 0.995939, 1, 1, 0.992401, 0.999999, 1, 1, 1, 1, 1, 1, 1, 1, 1, 1, 1, 1, 1, 1, 1, 1, 1, 1
357, 0.124043, 1, 0.993854, 0.998878, 0.992142, 1, 1, 0.187438, 0.671918, 1, 0.945639, 1, 1, 1, 1, 0.993854, 1, 1, 0.992143, 0.999999, 1, 1, 1, 1, 1, 1, 1, 1, 1, 1, 1, 1, 1, 1, 1, 1, 1, 1
358, 0.126292, 1, 0.990939, 0.998973, 0.992271, 1, 1, 0.191148, 0.672645, 1, 0.945767, 1, 1, 1, 1, 0.990939, 1, 1, 0.992272, 0.999999, 1, 1, 1, 1, 1, 1, 1, 1, 1, 1, 1, 1, 1, 1, 1, 1, 1, 1
359, 0.128548, 1, 0.987747, 0.999121, 0.992665, 1, 1, 0.194875, 0.673372, 1, 0.945895, 1, 1, 1, 1, 0.987747, 1, 1, 0.992666, 0.999999, 1, 1, 1, 1, 1, 1, 1, 1, 1, 1, 1, 1, 1, 1, 1, 1, 1, 1
360, 0.130866, 1, 0.985594, 0.999127, 0.992596, 1, 1, 0.198618, 0.674093, 1, 0.946021, 1, 1, 1, 1, 0.985594, 1, 1, 0.992597, 0.999999, 1, 1, 1, 1, 1, 1, 1, 1, 1, 1, 1, 1, 1, 1, 1, 1, 1, 1
361, 0.133537, 1, 0.986142, 0.999234, 0.992282, 1, 1, 0.202377, 0.674807, 1, 0.946146, 1, 1, 1, 1, 0.986142, 1, 1, 0.992283, 0.999999, 1, 1, 1, 1, 1, 1, 1, 1, 1, 1, 1, 1, 1, 1, 1, 1, 1, 1
362, 0.136682, 1, 0.98968, 0.999455, 0.992204, 1, 1, 0.20615, 0.675517, 1, 0.946272, 1, 1, 1, 1, 0.98968, 1, 1, 0.992205, 0.999999, 1, 1, 1, 1, 1, 1, 1, 1, 1, 1, 1, 1, 1, 1, 1, 1, 1, 1
363, 0.139982, 1, 0.994045, 0.999638, 0.992231, 1, 1, 0.209937, 0.676229, 1, 0.946396, 1, 1, 1, 1, 0.994045, 1, 1, 0.992232, 0.999999, 1, 1, 1, 1, 1, 1, 1, 1, 1, 1, 1, 1, 1, 1, 1, 1, 1, 1
364, 0.14307, 1, 0.997096, 0.999706, 0.991961, 1, 1, 0.213737, 0.676939, 1, 0.94652, 1, 1, 1, 1, 0.997096, 1, 1, 0.991963, 0.999999, 1, 1, 1, 1, 1, 1, 1, 1, 1, 1, 1, 1, 1, 1, 1, 1, 1, 1
365, 0.145953, 1, 0.998651, 0.999762, 0.991593, 1, 1, 0.21755, 0.677645, 1, 0.946643, 1, 1, 1, 1, 0.998651, 1, 1, 0.991594, 0.999999, 1, 1, 1, 1, 1, 1, 1, 1, 1, 1, 1, 1, 1, 1, 1, 1, 1, 1
366, 0.148808, 1, 0.999356, 0.999904, 0.991657, 1, 1, 0.221374, 0.678343, 1, 0.946766, 1, 1, 1, 1, 0.999356, 1, 1, 0.991658, 0.999999, 1, 1, 1, 1, 1, 1, 1, 1, 1, 1, 1, 1, 1, 1, 1, 1, 1, 1
367, 0.151625, 1, 0.999655, 0.999994, 0.991834, 1, 1, 0.225208, 0.679038, 1, 0.946887, 1, 1, 1, 1, 0.999655, 1, 1, 0.991835, 1, 1, 1, 1, 1, 1, 1, 1, 1, 1, 1, 1, 1, 1, 1, 1, 1, 1, 1
368, 0.154388, 1, 0.999757, 1, 0.991837, 1, 1, 0.229053, 0.679733, 1, 0.947008, 1, 1, 1, 1, 0.999757, 1, 1, 0.991838, 0.999999, 1, 1, 1, 1, 1, 1, 1, 1, 1, 1, 1, 1, 1, 1, 1, 1, 1, 1
369, 0.157157, 1, 0.999774, 1, 0.991887, 1, 1, 0.232907, 0.680428, 1, 0.947129, 1, 1, 1, 1, 0.999774, 1, 1, 0.991889, 0.999998, 1, 1, 1, 1, 1, 1, 1, 1, 1, 1, 1, 1, 1, 1, 1, 1, 1, 1
370, 0.159932, 1, 0.999774, 1, 0.991933, 1, 1, 0.236769, 0.681117, 1, 0.94725, 1, 1, 1, 1, 0.999774, 1, 1, 0.991934, 0.999999, 1, 1, 1, 1, 1, 1, 1, 1, 1, 1, 1, 1, 1, 1, 1, 1, 1, 1
371, 0.162669, 1, 0.999775, 1, 0.991693, 1, 1, 0.24064, 0.681802, 1, 0.947369, 1, 1, 1, 1, 0.999775, 1, 1, 0.991693, 0.999999, 1, 1, 1, 1, 1, 1, 1, 1, 1, 1, 1, 1, 1, 1, 1, 1, 1, 1
372, 0.1654, 1, 0.999772, 1, 0.991357, 1, 1, 0.244517, 0.682483, 1, 0.947488, 1, 1, 1, 1, 0.999772, 1, 1, 0.991357, 0.999999, 1, 1, 1, 1, 1, 1, 1, 1, 1, 1, 1, 1, 1, 1, 1, 1, 1, 1
373, 0.168209, 1, 0.999734, 1, 0.991471, 1, 1, 0.2484, 0.683165, 1, 0.947607, 1, 1, 1, 1, 0.999734, 1, 1, 0.991473, 0.999999, 1, 1, 1, 1, 1, 1, 1, 1, 1, 1, 1, 1, 1, 1, 1, 1, 1, 1
374, 0.171029, 1, 0.999603, 1, 0.991701, 1, 1, 0.25229, 0.683846, 1, 0.947725, 1, 1, 1, 1, 0.999603, 1, 1, 0.991702, 0.999999, 1, 1, 1, 1, 1, 1, 1, 1, 1, 1, 1, 1, 1, 1, 1, 1, 1, 1
375, 0.173728, 1, 0.999283, 1, 0.991386, 1, 1, 0.256184, 0.684523, 1, 0.947842, 1, 1, 1, 1, 0.999283, 1, 1, 0.991388, 0.999999, 1, 1, 1, 1, 1, 1, 1, 1, 1, 1, 1, 1, 1, 1, 1, 1, 1, 1
376, 0.176346, 1, 0.998549, 1, 0.990998, 1, 1, 0.260082, 0.685192, 1, 0.947959, 1, 1, 1, 1, 0.998549, 1, 1, 0.990999, 0.999999, 1, 1, 1, 1, 1, 1, 1, 1, 1, 1, 1, 1, 1, 1, 1, 1, 1, 1
377, 0.178961, 1, 0.997109, 1, 0.991301, 1, 1, 0.263985, 0.685856, 1, 0.948075, 1, 1, 1, 1, 0.997109, 1, 1, 0.991302, 1, 1, 1, 1, 1, 1, 1, 1, 1, 1, 1, 1, 1, 1, 1, 1, 1, 1, 1
378, 0.181456, 1, 0.994947, 1, 0.99167, 1, 1, 0.26789, 0.68652, 1, 0.94819, 1, 1, 1, 1, 0.994947, 1, 1, 0.991671, 0.999999, 1, 1, 1, 1, 1, 1, 1, 1, 1, 1, 1, 1, 1, 1, 1, 1, 1, 1
379, 0.183808, 1, 0.992744, 1, 0.991319, 1, 1, 0.271797, 0.687185, 1, 0.948306, 1, 1, 1, 1, 0.992744, 1, 1, 0.99132, 0.999999, 1, 1, 1, 1, 1, 1, 1, 1, 1, 1, 1, 1, 1, 1, 1, 1, 1, 1
380, 0.186359, 1, 0.991724, 1, 0.99087, 1, 1, 0.275707, 0.687847, 1, 0.948421, 1, 1, 1, 1, 0.991724, 1, 1, 0.99087, 1, 1, 1, 1, 1, 1, 1, 1, 1, 1, 1, 1, 1, 1, 1, 1, 1, 1, 1
381, 0.189377, 1, 0.99262, 1, 0.99097, 1, 1, 0.279617, 0.688502, 1, 0.948535, 1, 1, 1, 1, 0.99262, 1, 1, 0.990971, 1, 1, 1, 1, 1, 1, 1, 1, 1, 1, 1, 1, 1, 1, 1, 1, 1, 1, 1
382, 0.192697, 1, 0.99481, 1, 0.991302, 1, 1, 0.283528, 0.689154, 1, 0.948648, 1, 1, 1, 1, 0.99481, 1, 1, 0.991303, 0.999999, 1, 1, 1, 1, 1, 1, 1, 1, 1, 1, 1, 1, 1, 1, 1, 1, 1, 1
383, 0.195974, 1, 0.996996, 1, 0.991338, 1, 1, 0.287439, 0.689804, 1, 0.948762, 1, 1, 1, 1, 0.996996, 1, 1, 0.991338, 0.999999, 1, 1, 1, 1, 1, 1, 1, 1, 1, 1, 1, 1, 1, 1, 1, 1, 1, 1
384, 0.19906, 1, 0.998459, 1, 0.991055, 1, 1, 0.29135, 0.690454, 1, 0.948875, 1, 1, 1, 1, 0.998459, 1, 1, 0.991056, 0.999999, 1, 1, 1, 1, 1, 1, 1, 1, 1, 1, 1, 1, 1, 1, 1, 1, 1, 1
385, 0.202056, 1, 0.999236, 1, 0.990956, 1, 1, 0.295258, 0.691099, 1, 0.948987, 1, 1, 1, 1, 0.999236, 1, 1, 0.990956, 1, 1, 1, 1, 1, 1, 1, 1, 1, 1, 1, 1, 1, 1, 1, 1, 1, 1, 1
386, 0.205026, 1, 0.999604, 1, 0.991109, 1, 1, 0.299166, 0.691738, 1, 0.949098, 1, 1, 1, 1, 0.999604, 1, 1, 0.99111, 1, 1, 1, 1, 1, 1, 1, 1, 1, 1, 1, 1, 1, 1, 1, 1, 1, 1, 1
387, 0.207919, 1, 0.999746, 1, 0.991098, 1, 1, 0.303071, 0.692377, 1, 0.949208, 1, 1, 1, 1, 0.999746, 1, 1, 0.991099, 1, 1, 1, 1, 1, 1, 1, 1, 1, 1, 1, 1, 1, 1, 1, 1, 1, 1, 1
388, 0.21076, 0.999996, 0.999774, 1, 0.990931, 1, 1, 0.306973, 0.693015, 1, 0.949319, 1, 1, 1, 1, 0.999774, 1, 1, 0.990932, 0.999999, 1, 1, 1, 1, 1, 1, 1, 1, 1, 1, 1, 1, 1, 1, 1, 1, 1, 1
389, 0.213604, 0.999969, 0.999776, 1, 0.990817, 1, 1, 0.310871, 0.693653, 1, 0.949429, 1, 1, 1, 1, 0.999776, 1, 1, 0.990818, 0.999999, 1, 1, 1, 1, 1, 1, 1, 1, 1, 1, 1, 1, 1, 1, 1, 1, 1, 1
390, 0.216463, 0.999912, 0.999809, 1, 0.990775, 1, 1, 0.314766, 0.694286, 1, 0.949538, 1, 1, 1, 1, 0.999809, 1, 1, 0.990776, 1, 1, 1, 1, 1, 1, 1, 1, 1, 1, 1, 1, 1, 1, 1, 1, 1, 1, 1
391, 0.219327, 0.999878, 0.999891, 1, 0.990683, 1, 1, 0.318656, 0.694915, 1, 0.949647, 1, 1, 1, 1, 0.999891, 1, 1, 0.990683, 1, 1, 1, 1, 1, 1, 1, 1, 1, 1, 1, 1, 1, 1, 1, 1, 1, 1, 1
392, 0.222235, 0.99989, 0.99997, 1, 0.990744, 1, 1, 0.322542, 0.695539, 1, 0.949755, 1, 1, 1, 1, 0.99997, 1, 1, 0.990744, 1, 1, 1, 1, 1, 1, 1, 1, 1, 1, 1, 1, 1, 1, 1, 1, 1, 1, 1
393, 0.225216, 0.999916, 0.999999, 1, 0.991151, 1, 1, 0.326422, 0.696163, 1, 0.949863, 1, 1, 1, 1, 0.999999, 1, 1, 0.991151, 1, 1, 1, 1, 1, 1, 1, 1, 1, 1, 1, 1, 1, 1, 1, 1, 1, 1, 1
394, 0.228141, 0.999946, 1, 1, 0.991332, 1, 1, 0.330296, 0.696788, 1, 0.949971, 1, 1, 1, 1, 1, 1, 1, 0.991332, 1, 1, 1, 1, 1, 1, 1, 1, 1, 1, 1, 1, 1, 1, 1, 1, 1, 1, 1
395, 0.230944, 0.999914, 1, 1, 0.991048, 1, 1, 0.334164, 0.697411, 1, 0.950078, 1, 1, 1, 1, 1, 1, 1, 0.991048, 1, 1, 1, 1, 1, 1, 1, 1, 1, 1, 1, 1, 1, 1, 1, 1, 1, 1, 1
396, 0.233731, 0.999624, 1, 1, 0.990959, 1, 1, 0.338025, 0.698029, 1, 0.950184, 1, 1, 1, 1, 1, 1, 1, 0.99096, 1, 1, 1, 1, 1, 1, 1, 1, 1, 1, 1, 1, 1, 1, 1, 1, 1, 1, 1
397, 0.236509, 0.999225, 1, 1, 0.990959, 1, 1, 0.34188, 0.698642, 1, 0.95029, 1, 1, 1, 1, 1, 1, 1, 0.990959, 1, 1, 1, 1, 1, 1, 1, 1, 1, 1, 1, 1, 1, 1, 1, 1, 1, 1, 1
398, 0.239295, 0.99913, 1, 1, 0.990703, 1, 1, 0.345726, 0.699254, 1, 0.950396, 1, 1, 1, 1, 1, 1, 1, 0.990703, 1, 1, 1, 1, 1, 1, 1, 1, 1, 1, 1, 1, 1, 1, 1, 1, 1, 1, 1
399, 0.242135, 0.999251, 0.999966, 1, 0.990501, 1, 1, 0.349564, 0.699865, 1, 0.950502, 1, 1, 1, 1, 0.999966, 1, 1, 0.990501, 1, 1, 1, 1, 1, 1, 1, 1, 1, 1, 1, 1, 1, 1, 1, 1, 1, 1, 1
400, 0.244969, 0.99942, 0.999881, 1, 0.99029, 1, 1, 0.353395, 0.700473, 1, 0.950606, 1, 1, 1, 1, 0.999881, 1, 1, 0.990291, 1, 1, 1, 1, 1, 1, 1, 1, 1, 1, 1, 1, 1, 1, 1, 1, 1, 1, 1
401, 0.2479, 0.999635, 0.999811, 1, 0.990415, 1, 1, 0.357216, 0.701075, 1, 0.95071, 1, 1, 1, 1, 0.999811, 1, 1, 0.990415, 1, 1, 1, 1, 1, 1, 1, 1, 1, 1, 1, 1, 1, 1, 1, 1, 1, 1, 1
402, 0.250957, 0.99979, 0.999786, 1, 0.991061, 1, 1, 0.361028, 0.701675, 1, 0.950813, 1, 1, 1, 1, 0.999786, 1, 1, 0.991061, 1, 1, 1, 1, 1, 1, 1, 1, 1, 1, 1, 1, 1, 1, 1, 1, 1, 1, 1
403, 0.253915, 0.999874, 0.999778, 1, 0.991379, 1, 1, 0.364831, 0.702275, 1, 0.950917, 1, 1, 1, 1, 0.999778, 1, 1, 0.991379, 1, 1, 1, 1, 1, 1, 1, 1, 1, 1, 1, 1, 1, 1, 1, 1, 1, 1, 1
404, 0.256696, 0.999924, 0.999775, 1, 0.991035, 1, 1, 0.368623, 0.702873, 1, 0.951019, 1, 1, 1, 1, 0.999775, 1, 1, 0.991035, 1, 1, 1, 1, 1, 1, 1, 1, 1, 1, 1, 1, 1, 1, 1, 1, 1, 1, 1
405, 0.25951, 0.999954, 0.999776, 1, 0.990852, 1, 1, 0.372405, 0.703467, 1, 0.951122, 1, 1, 1, 1, 0.999776, 1, 1, 0.990852, 1, 1, 1, 1, 1, 1, 1, 1, 1, 1, 1, 1, 1, 1, 1, 1, 1, 1, 1
406, 0.262514, 0.999977, 0.999816, 0.99999, 0.991384, 1, 1, 0.376177, 0.704057, 1, 0.951223, 1, 1, 1, 1, 0.999816, 1, 1, 0.991384, 1, 1, 1, 1, 1, 1, 1, 1, 1, 1, 1, 1, 1, 1, 1, 1, 1, 1, 1
