case index 23 = {
num freq, 1701
num column, 38
Waveln,  combin,  H2O,  umix,  O3,  trace,  N2,  H2Ocnt,  molec,  aercld,  HNO3,  aercld,  CO2,  CO,  CH4,  N2O,  O2,  NH3,  NO,  NO2,  SO2,  cloud,  F11,  F12,  CCl3F,  CF4,  F22,  F113,  F114,  R115,  ClONO2,  HNO4,  CHCl2F,  CCl4,  N2O5,  H2-H2,  H2-HE,  H2-CH4,  CH4-CH4
  [nm],  trans,  trans,  trans,  trans,  trans,  trans,  trans,  scat,  trans,  trans,  abtrns,  trans,  trans,  trans,  trans,  trans,  trans,  trans,  trans,  trans,  trans,  trans,  trans,  trans,  trans,  trans,  trans,  trans,  trans,  trans,  trans,  trans,  trans,  trans,  trans,  trans,  trans,  trans
300, 0.00154793, 1, 1, 0.0227841, 0.997044, 1, 1, 0.247222, 0.273474, 1, 0.721015, 1, 1, 1, 1, 1, 1, 1, 0.99917, 0.997872, 1, 1, 1, 1, 1, 1, 1, 1, 1, 1, 1, 1, 1, 1, 1, 1, 1, 1
301, 0.00254204, 1, 1, 0.036619, 0.997322, 1, 1, 0.252197, 0.274175, 1, 0.721715, 1, 1, 1, 1, 1, 1, 1, 0.99915, 0.99817, 1, 1, 1, 1, 1, 1, 1, 1, 1, 1, 1, 1, 1, 1, 1, 1, 1, 1
302, 0.00396021, 1, 1, 0.0558187, 0.99745, 1, 1, 0.257178, 0.274935, 1, 0.722375, 1, 1, 1, 1, 1, 1, 1, 0.999089, 0.998359, 1, 1, 1, 1, 1, 1, 1, 1, 1, 1, 1, 1, 1, 1, 1, 1, 1, 1
303, 0.00581912, 1, 1, 0.0803169, 0.997499, 1, 1, 0.262167, 0.275705, 1, 0.72303, 1, 1, 1, 1, 1, 1, 1, 0.99902, 0.998478, 1, 1, 1, 1, 1, 1, 1, 1, 1, 1, 1, 1, 1, 1, 1, 1, 1, 1
304, 0.0081616, 1, 1, 0.110279, 0.997595, 1, 1, 0.267159, 0.276475, 1, 0.723683, 1, 1, 1, 1, 1, 1, 1, 0.998982, 0.998611, 1, 1, 1, 1, 1, 1, 1, 1, 1, 1, 1, 1, 1, 1, 1, 1, 1, 1
305, 0.0110484, 1, 1, 0.146216, 0.997699, 1, 1, 0.272156, 0.277244, 1, 0.72433, 1, 1, 1, 1, 1, 1, 1, 0.998967, 0.99873, 1, 1, 1, 1, 1, 1, 1, 1, 1, 1, 1, 1, 1, 1, 1, 1, 1, 1
306, 0.0143654, 1, 1, 0.186273, 0.997746, 1, 1, 0.277154, 0.278008, 1, 0.724968, 1, 1, 1, 1, 1, 1, 1, 0.998951, 0.998794, 1, 1, 1, 1, 1, 1, 1, 1, 1, 1, 1, 1, 1, 1, 1, 1, 1, 1
307, 0.0182279, 1, 1, 0.231576, 0.997787, 1, 1, 0.282153, 0.278772, 1, 0.725602, 1, 1, 1, 1, 1, 1, 1, 0.998924, 0.998862, 1, 1, 1, 1, 1, 1, 1, 1, 1, 1, 1, 1, 1, 1, 1, 1, 1, 1
308, 0.0223649, 1, 1, 0.278589, 0.997878, 1, 1, 0.287152, 0.279537, 1, 0.726236, 1, 1, 1, 1, 1, 1, 1, 0.998886, 0.99899, 1, 1, 1, 1, 1, 1, 1, 1, 1, 1, 1, 1, 1, 1, 1, 1, 1, 1
309, 0.0268234, 1, 1, 0.327543, 0.997901, 1, 1, 0.292149, 0.280303, 1, 0.726867, 1, 1, 1, 1, 1, 1, 1, 0.998828, 0.999072, 1, 1, 1, 1, 1, 1, 1, 1, 1, 1, 1, 1, 1, 1, 1, 1, 1, 1
310, 0.0316843, 1, 1, 0.379499, 0.997943, 1, 1, 0.297143, 0.281063, 1, 0.727493, 1, 1, 1, 1, 1, 1, 1, 0.998774, 0.999168, 1, 1, 1, 1, 1, 1, 1, 1, 1, 1, 1, 1, 1, 1, 1, 1, 1, 1
311, 0.0364406, 1, 1, 0.428213, 0.998018, 1, 1, 0.302133, 0.281818, 1, 0.728112, 1, 1, 1, 1, 1, 1, 1, 0.998736, 0.999281, 1, 1, 1, 1, 1, 1, 1, 1, 1, 1, 1, 1, 1, 1, 1, 1, 1, 1
312, 0.0415033, 1, 1, 0.478471, 0.99809, 1, 1, 0.307119, 0.28257, 1, 0.728726, 1, 1, 1, 1, 1, 1, 1, 0.998698, 0.999391, 1, 1, 1, 1, 1, 1, 1, 1, 1, 1, 1, 1, 1, 1, 1, 1, 1, 1
313, 0.0465872, 1, 1, 0.527271, 0.998145, 1, 1, 0.312098, 0.283325, 1, 0.729343, 1, 1, 1, 1, 1, 1, 1, 0.998676, 0.999468, 1, 1, 1, 1, 1, 1, 1, 1, 1, 1, 1, 1, 1, 1, 1, 1, 1, 1
314, 0.0515149, 1, 1, 0.572375, 0.998197, 1, 1, 0.31707, 0.28408, 1, 0.729957, 1, 1, 1, 1, 1, 1, 1, 0.998647, 0.99955, 1, 1, 1, 1, 1, 1, 1, 1, 1, 1, 1, 1, 1, 1, 1, 1, 1, 1
315, 0.0565147, 1, 1, 0.61672, 0.998216, 1, 1, 0.322034, 0.28483, 1, 0.730566, 1, 1, 1, 1, 1, 1, 1, 0.998597, 0.999619, 1, 1, 1, 1, 1, 1, 1, 1, 1, 1, 1, 1, 1, 1, 1, 1, 1, 1
316, 0.0611689, 1, 1, 0.655784, 0.998212, 1, 1, 0.326988, 0.285574, 1, 0.731168, 1, 1, 1, 1, 1, 1, 1, 0.998555, 0.999657, 1, 1, 1, 1, 1, 1, 1, 1, 1, 1, 1, 1, 1, 1, 1, 1, 1, 1
317, 0.0656115, 1, 1, 0.691204, 0.998194, 1, 1, 0.331933, 0.286315, 1, 0.731765, 1, 1, 1, 1, 1, 1, 1, 0.998489, 0.999704, 1, 1, 1, 1, 1, 1, 1, 1, 1, 1, 1, 1, 1, 1, 1, 1, 1, 1
318, 0.07043, 1, 1, 0.729179, 0.998186, 1, 1, 0.336866, 0.287058, 1, 0.732363, 1, 1, 1, 1, 1, 1, 1, 0.998426, 0.999759, 1, 1, 1, 1, 1, 1, 1, 1, 1, 1, 1, 1, 1, 1, 1, 1, 1, 1
319, 0.0749214, 1, 1, 0.762703, 0.99821, 1, 1, 0.341787, 0.287801, 1, 0.732961, 1, 1, 1, 1, 1, 1, 1, 0.998394, 0.999816, 1, 1, 1, 1, 1, 1, 1, 1, 1, 1, 1, 1, 1, 1, 1, 1, 1, 1
320, 0.0789567, 1, 1, 0.790345, 0.998211, 1, 1, 0.346695, 0.288542, 1, 0.733554, 1, 1, 1, 1, 1, 1, 1, 0.99836, 0.999851, 1, 1, 1, 1, 1, 1, 1, 1, 1, 1, 1, 1, 1, 1, 1, 1, 1, 1
321, 0.0832843, 1, 1, 0.819993, 0.998218, 1, 1, 0.35159, 0.289279, 1, 0.734139, 1, 1, 1, 1, 1, 1, 1, 0.998336, 0.999882, 1, 1, 1, 1, 1, 1, 1, 1, 1, 1, 1, 1, 1, 1, 1, 1, 1, 1
322, 0.0863636, 1, 1, 0.836808, 0.998215, 1, 1, 0.35647, 0.290013, 1, 0.734721, 1, 1, 1, 1, 1, 1, 1, 0.998301, 0.999914, 1, 1, 1, 1, 1, 1, 1, 1, 1, 1, 1, 1, 1, 1, 1, 1, 1, 1
323, 0.0899621, 1, 1, 0.857473, 0.998191, 1, 1, 0.361335, 0.290748, 1, 0.735302, 1, 1, 1, 1, 1, 1, 1, 0.998253, 0.999938, 1, 1, 1, 1, 1, 1, 1, 1, 1, 1, 1, 1, 1, 1, 1, 1, 1, 1
324, 0.0940619, 1, 1, 0.882697, 0.998176, 1, 1, 0.366184, 0.291485, 1, 0.735884, 1, 1, 1, 1, 1, 1, 1, 0.998221, 0.999955, 1, 1, 1, 1, 1, 1, 1, 1, 1, 1, 1, 1, 1, 1, 1, 1, 1, 1
325, 0.0964206, 1, 1, 0.890937, 0.998142, 1, 1, 0.371016, 0.292218, 1, 0.736461, 1, 1, 1, 1, 1, 1, 1, 0.998176, 0.999966, 1, 1, 1, 1, 1, 1, 1, 1, 1, 1, 1, 1, 1, 1, 1, 1, 1, 1
326, 0.0998307, 1, 1, 0.908157, 0.998107, 1, 1, 0.37583, 0.292945, 1, 0.737031, 1, 1, 1, 1, 1, 1, 1, 0.998133, 0.999974, 1, 1, 1, 1, 1, 1, 1, 1, 1, 1, 1, 1, 1, 1, 1, 1, 1, 1
327, 0.103006, 1, 1, 0.923261, 0.998091, 1, 1, 0.380626, 0.293667, 1, 0.737597, 1, 1, 1, 1, 1, 1, 1, 0.998109, 0.999981, 1, 1, 1, 1, 1, 1, 1, 1, 1, 1, 1, 1, 1, 1, 1, 1, 1, 1
328, 0.104941, 1, 1, 0.926632, 0.99806, 1, 1, 0.385404, 0.29439, 1, 0.738161, 1, 1, 1, 1, 1, 1, 1, 0.998073, 0.999986, 1, 1, 1, 1, 1, 1, 1, 1, 1, 1, 1, 1, 1, 1, 1, 1, 1, 1
329, 0.108376, 1, 1, 0.942869, 0.99801, 1, 1, 0.390162, 0.295114, 1, 0.738727, 1, 1, 1, 1, 1, 1, 1, 0.99802, 0.99999, 1, 1, 1, 1, 1, 1, 1, 1, 1, 1, 1, 1, 1, 1, 1, 1, 1, 1
330, 0.111086, 1, 1, 0.952806, 0.997983, 1, 1, 0.3949, 0.295838, 1, 0.739289, 1, 1, 1, 1, 1, 1, 1, 0.997991, 0.999993, 1, 1, 1, 1, 1, 1, 1, 1, 1, 1, 1, 1, 1, 1, 1, 1, 1, 1
331, 0.112571, 1, 1, 0.951789, 0.99796, 1, 1, 0.399617, 0.296556, 1, 0.739846, 1, 1, 1, 1, 1, 1, 1, 0.997965, 0.999996, 1, 1, 1, 1, 1, 1, 1, 1, 1, 1, 1, 1, 1, 1, 1, 1, 1, 1
332, 0.1154, 1, 1, 0.962039, 0.997863, 1, 1, 0.404313, 0.29727, 1, 0.740397, 1, 1, 1, 1, 1, 1, 1, 0.997865, 0.999997, 1, 1, 1, 1, 1, 1, 1, 1, 1, 1, 1, 1, 1, 1, 1, 1, 1, 1
333, 0.117963, 1, 1, 0.970069, 0.997784, 1, 1, 0.408988, 0.297983, 1, 0.740947, 1, 1, 1, 1, 1, 1, 1, 0.997787, 0.999998, 1, 1, 1, 1, 1, 1, 1, 1, 1, 1, 1, 1, 1, 1, 1, 1, 1, 1
334, 0.119732, 1, 0.999958, 0.971175, 0.997805, 1, 1, 0.41364, 0.298704, 1, 0.741497, 1, 1, 1, 1, 0.999958, 1, 1, 0.997808, 0.999998, 1, 1, 1, 1, 1, 1, 1, 1, 1, 1, 1, 1, 1, 1, 1, 1, 1, 1
335, 0.122374, 1, 0.999827, 0.979221, 0.997797, 1, 1, 0.41827, 0.299455, 1, 0.742046, 1, 1, 1, 1, 0.999827, 1, 1, 0.997799, 0.999999, 1, 1, 1, 1, 1, 1, 1, 1, 1, 1, 1, 1, 1, 1, 1, 1, 1, 1
336, 0.124629, 1, 0.999677, 0.984062, 0.997766, 1, 1, 0.422876, 0.300259, 1, 0.742595, 1, 1, 1, 1, 0.999677, 1, 1, 0.997766, 0.999999, 1, 1, 1, 1, 1, 1, 1, 1, 1, 1, 1, 1, 1, 1, 1, 1, 1, 1
337, 0.125946, 1, 0.999594, 0.981175, 0.997748, 1, 1, 0.427459, 0.301095, 1, 0.743143, 1, 1, 1, 1, 0.999594, 1, 1, 0.997748, 1, 1, 1, 1, 1, 1, 1, 1, 1, 1, 1, 1, 1, 1, 1, 1, 1, 1, 1
338, 0.127955, 1, 0.999542, 0.983601, 0.997653, 1, 1, 0.432018, 0.301938, 1, 0.743691, 1, 1, 1, 1, 0.999542, 1, 1, 0.997653, 1, 1, 1, 1, 1, 1, 1, 1, 1, 1, 1, 1, 1, 1, 1, 1, 1, 1, 1
339, 0.130354, 1, 0.999447, 0.989083, 0.997531, 1, 1, 0.436553, 0.302794, 1, 0.74424, 1, 1, 1, 1, 0.999447, 1, 1, 0.997531, 1, 1, 1, 1, 1, 1, 1, 1, 1, 1, 1, 1, 1, 1, 1, 1, 1, 1, 1
340, 0.132187, 1, 0.999258, 0.990132, 0.997457, 1, 1, 0.441063, 0.303683, 1, 0.744787, 1, 1, 1, 1, 0.999258, 1, 1, 0.997457, 1, 1, 1, 1, 1, 1, 1, 1, 1, 1, 1, 1, 1, 1, 1, 1, 1, 1, 1
341, 0.134086, 1, 0.998952, 0.991516, 0.997427, 1, 1, 0.445548, 0.304609, 1, 0.745335, 1, 1, 1, 1, 0.998952, 1, 1, 0.997427, 1, 1, 1, 1, 1, 1, 1, 1, 1, 1, 1, 1, 1, 1, 1, 1, 1, 1, 1
342, 0.136229, 1, 0.998574, 0.994622, 0.997497, 1, 1, 0.450007, 0.305551, 1, 0.745881, 1, 1, 1, 1, 0.998574, 1, 1, 0.997497, 1, 1, 1, 1, 1, 1, 1, 1, 1, 1, 1, 1, 1, 1, 1, 1, 1, 1, 1
343, 0.137962, 1, 0.998289, 0.994621, 0.997564, 1, 1, 0.454441, 0.306497, 1, 0.746427, 1, 1, 1, 1, 0.998289, 1, 1, 0.997564, 0.999999, 1, 1, 1, 1, 1, 1, 1, 1, 1, 1, 1, 1, 1, 1, 1, 1, 1, 1
344, 0.13952, 1, 0.998317, 0.993133, 0.997509, 1, 1, 0.458849, 0.307445, 1, 0.746974, 1, 1, 1, 1, 0.998317, 1, 1, 0.997509, 0.999999, 1, 1, 1, 1, 1, 1, 1, 1, 1, 1, 1, 1, 1, 1, 1, 1, 1, 1
345, 0.141515, 1, 0.998709, 0.99443, 0.997399, 1, 1, 0.46323, 0.30839, 1, 0.747517, 1, 1, 1, 1, 0.998709, 1, 1, 0.997399, 1, 1, 1, 1, 1, 1, 1, 1, 1, 1, 1, 1, 1, 1, 1, 1, 1, 1, 1
346, 0.14369, 1, 0.999204, 0.996909, 0.997291, 1, 1, 0.467585, 0.309328, 1, 0.748056, 1, 1, 1, 1, 0.999204, 1, 1, 0.997291, 1, 1, 1, 1, 1, 1, 1, 1, 1, 1, 1, 1, 1, 1, 1, 1, 1, 1, 1
347, 0.145639, 1, 0.999536, 0.997958, 0.997172, 1, 1, 0.471913, 0.310261, 1, 0.748589, 1, 1, 1, 1, 0.999536, 1, 1, 0.997172, 1, 1, 1, 1, 1, 1, 1, 1, 1, 1, 1, 1, 1, 1, 1, 1, 1, 1, 1
348, 0.147482, 1, 0.999682, 0.998392, 0.997085, 1, 1, 0.476214, 0.311195, 1, 0.749122, 1, 1, 1, 1, 0.999682, 1, 1, 0.997085, 1, 1, 1, 1, 1, 1, 1, 1, 1, 1, 1, 1, 1, 1, 1, 1, 1, 1, 1
349, 0.149355, 1, 0.999713, 0.99897, 0.997159, 1, 1, 0.480488, 0.312131, 1, 0.749655, 1, 1, 1, 1, 0.999713, 1, 1, 0.997159, 1, 1, 1, 1, 1, 1, 1, 1, 1, 1, 1, 1, 1, 1, 1, 1, 1, 1, 1
350, 0.151169, 1, 0.999681, 0.999203, 0.997254, 1, 1, 0.484734, 0.313062, 1, 0.750184, 1, 1, 1, 1, 0.999681, 1, 1, 0.997254, 0.999999, 1, 1, 1, 1, 1, 1, 1, 1, 1, 1, 1, 1, 1, 1, 1, 1, 1, 1
351, 0.152869, 1, 0.999622, 0.998864, 0.997229, 1, 1, 0.488952, 0.313985, 1, 0.750709, 1, 1, 1, 1, 0.999622, 1, 1, 0.997229, 0.999999, 1, 1, 1, 1, 1, 1, 1, 1, 1, 1, 1, 1, 1, 1, 1, 1, 1, 1
352, 0.154589, 1, 0.999531, 0.99866, 0.997247, 1, 1, 0.493143, 0.314906, 1, 0.751231, 1, 1, 1, 1, 0.999531, 1, 1, 0.997247, 1, 1, 1, 1, 1, 1, 1, 1, 1, 1, 1, 1, 1, 1, 1, 1, 1, 1, 1
353, 0.156392, 1, 0.999397, 0.999118, 0.997189, 1, 1, 0.497307, 0.315828, 1, 0.751754, 1, 1, 1, 1, 0.999397, 1, 1, 0.99719, 1, 1, 1, 1, 1, 1, 1, 1, 1, 1, 1, 1, 1, 1, 1, 1, 1, 1, 1
354, 0.158166, 1, 0.999209, 0.999611, 0.99697, 1, 1, 0.501441, 0.316751, 1, 0.752275, 1, 1, 1, 1, 0.999209, 1, 1, 0.996971, 0.999999, 1, 1, 1, 1, 1, 1, 1, 1, 1, 1, 1, 1, 1, 1, 1, 1, 1, 1
355, 0.159881, 1, 0.998905, 0.999704, 0.996909, 1, 1, 0.505548, 0.31767, 1, 0.752793, 1, 1, 1, 1, 0.998905, 1, 1, 0.996909, 1, 1, 1, 1, 1, 1, 1, 1, 1, 1, 1, 1, 1, 1, 1, 1, 1, 1, 1
356, 0.161538, 1, 0.998387, 0.999626, 0.996915, 1, 1, 0.509626, 0.318583, 1, 0.753306, 1, 1, 1, 1, 0.998387, 1, 1, 0.996915, 1, 1, 1, 1, 1, 1, 1, 1, 1, 1, 1, 1, 1, 1, 1, 1, 1, 1, 1
357, 0.163121, 1, 0.997558, 0.999546, 0.99681, 1, 1, 0.513676, 0.319495, 1, 0.753816, 1, 1, 1, 1, 0.997558, 1, 1, 0.99681, 1, 1, 1, 1, 1, 1, 1, 1, 1, 1, 1, 1, 1, 1, 1, 1, 1, 1, 1
358, 0.164692, 1, 0.996396, 0.999585, 0.996862, 1, 1, 0.517698, 0.320409, 1, 0.754326, 1, 1, 1, 1, 0.996396, 1, 1, 0.996862, 1, 1, 1, 1, 1, 1, 1, 1, 1, 1, 1, 1, 1, 1, 1, 1, 1, 1, 1
359, 0.166259, 1, 0.995123, 0.999645, 0.997023, 1, 1, 0.521692, 0.321323, 1, 0.754836, 1, 1, 1, 1, 0.995123, 1, 1, 0.997023, 0.999999, 1, 1, 1, 1, 1, 1, 1, 1, 1, 1, 1, 1, 1, 1, 1, 1, 1, 1
360, 0.167847, 1, 0.994263, 0.999647, 0.996995, 1, 1, 0.525656, 0.322232, 1, 0.755342, 1, 1, 1, 1, 0.994263, 1, 1, 0.996996, 1, 1, 1, 1, 1, 1, 1, 1, 1, 1, 1, 1, 1, 1, 1, 1, 1, 1, 1
361, 0.169602, 1, 0.994481, 0.999691, 0.996867, 1, 1, 0.529592, 0.323133, 1, 0.755843, 1, 1, 1, 1, 0.994481, 1, 1, 0.996867, 1, 1, 1, 1, 1, 1, 1, 1, 1, 1, 1, 1, 1, 1, 1, 1, 1, 1, 1
362, 0.171583, 1, 0.995893, 0.99978, 0.996835, 1, 1, 0.533499, 0.324032, 1, 0.756342, 1, 1, 1, 1, 0.995893, 1, 1, 0.996836, 1, 1, 1, 1, 1, 1, 1, 1, 1, 1, 1, 1, 1, 1, 1, 1, 1, 1, 1
363, 0.173628, 1, 0.997633, 0.999854, 0.996846, 1, 1, 0.537377, 0.324934, 1, 0.756841, 1, 1, 1, 1, 0.997633, 1, 1, 0.996847, 0.999999, 1, 1, 1, 1, 1, 1, 1, 1, 1, 1, 1, 1, 1, 1, 1, 1, 1, 1
364, 0.175555, 1, 0.998847, 0.999882, 0.996736, 1, 1, 0.541227, 0.325836, 1, 0.75734, 1, 1, 1, 1, 0.998847, 1, 1, 0.996737, 1, 1, 1, 1, 1, 1, 1, 1, 1, 1, 1, 1, 1, 1, 1, 1, 1, 1, 1
365, 0.177368, 1, 0.999465, 0.999904, 0.996587, 1, 1, 0.545047, 0.326734, 1, 0.757835, 1, 1, 1, 1, 0.999465, 1, 1, 0.996587, 1, 1, 1, 1, 1, 1, 1, 1, 1, 1, 1, 1, 1, 1, 1, 1, 1, 1, 1
366, 0.179154, 1, 0.999745, 0.999962, 0.996613, 1, 1, 0.54884, 0.327624, 1, 0.758326, 1, 1, 1, 1, 0.999745, 1, 1, 0.996613, 1, 1, 1, 1, 1, 1, 1, 1, 1, 1, 1, 1, 1, 1, 1, 1, 1, 1, 1
367, 0.180911, 1, 0.999863, 0.999998, 0.996685, 1, 1, 0.552603, 0.328511, 1, 0.758815, 1, 1, 1, 1, 0.999863, 1, 1, 0.996685, 1, 1, 1, 1, 1, 1, 1, 1, 1, 1, 1, 1, 1, 1, 1, 1, 1, 1, 1
368, 0.182635, 1, 0.999904, 1, 0.996686, 1, 1, 0.556337, 0.3294, 1, 0.759302, 1, 1, 1, 1, 0.999904, 1, 1, 0.996686, 1, 1, 1, 1, 1, 1, 1, 1, 1, 1, 1, 1, 1, 1, 1, 1, 1, 1, 1
369, 0.184354, 1, 0.99991, 1, 0.996706, 1, 1, 0.560043, 0.330291, 1, 0.759789, 1, 1, 1, 1, 0.99991, 1, 1, 0.996707, 1, 1, 1, 1, 1, 1, 1, 1, 1, 1, 1, 1, 1, 1, 1, 1, 1, 1, 1
370, 0.186065, 1, 0.99991, 1, 0.996725, 1, 1, 0.56372, 0.331177, 1, 0.760274, 1, 1, 1, 1, 0.99991, 1, 1, 0.996725, 0.999999, 1, 1, 1, 1, 1, 1, 1, 1, 1, 1, 1, 1, 1, 1, 1, 1, 1, 1
371, 0.187749, 1, 0.999911, 1, 0.996627, 1, 1, 0.567369, 0.332058, 1, 0.760753, 1, 1, 1, 1, 0.999911, 1, 1, 0.996627, 1, 1, 1, 1, 1, 1, 1, 1, 1, 1, 1, 1, 1, 1, 1, 1, 1, 1, 1
372, 0.189421, 1, 0.99991, 1, 0.996491, 1, 1, 0.570988, 0.332937, 1, 0.761231, 1, 1, 1, 1, 0.99991, 1, 1, 0.996491, 1, 1, 1, 1, 1, 1, 1, 1, 1, 1, 1, 1, 1, 1, 1, 1, 1, 1, 1
373, 0.191123, 1, 0.999895, 1, 0.996537, 1, 1, 0.57458, 0.333818, 1, 0.761708, 1, 1, 1, 1, 0.999895, 1, 1, 0.996538, 1, 1, 1, 1, 1, 1, 1, 1, 1, 1, 1, 1, 1, 1, 1, 1, 1, 1, 1
374, 0.192824, 1, 0.999843, 1, 0.996631, 1, 1, 0.578143, 0.3347, 1, 0.762186, 1, 1, 1, 1, 0.999843, 1, 1, 0.996631, 1, 1, 1, 1, 1, 1, 1, 1, 1, 1, 1, 1, 1, 1, 1, 1, 1, 1, 1
375, 0.194462, 1, 0.999715, 1, 0.996502, 1, 1, 0.581677, 0.335578, 1, 0.76266, 1, 1, 1, 1, 0.999715, 1, 1, 0.996503, 0.999999, 1, 1, 1, 1, 1, 1, 1, 1, 1, 1, 1, 1, 1, 1, 1, 1, 1, 1
376, 0.196052, 1, 0.999425, 1, 0.996345, 1, 1, 0.585182, 0.336448, 1, 0.76313, 1, 1, 1, 1, 0.999425, 1, 1, 0.996345, 1, 1, 1, 1, 1, 1, 1, 1, 1, 1, 1, 1, 1, 1, 1, 1, 1, 1, 1
377, 0.197636, 1, 0.998852, 1, 0.996468, 1, 1, 0.588661, 0.337313, 1, 0.763597, 1, 1, 1, 1, 0.998852, 1, 1, 0.996468, 1, 1, 1, 1, 1, 1, 1, 1, 1, 1, 1, 1, 1, 1, 1, 1, 1, 1, 1
378, 0.199163, 1, 0.997993, 1, 0.996618, 1, 1, 0.59211, 0.33818, 1, 0.764065, 1, 1, 1, 1, 0.997993, 1, 1, 0.996618, 1, 1, 1, 1, 1, 1, 1, 1, 1, 1, 1, 1, 1, 1, 1, 1, 1, 1, 1
379, 0.200623, 1, 0.997116, 1, 0.996475, 1, 1, 0.595532, 0.339048, 1, 0.764532, 1, 1, 1, 1, 0.997116, 1, 1, 0.996475, 1, 1, 1, 1, 1, 1, 1, 1, 1, 1, 1, 1, 1, 1, 1, 1, 1, 1, 1
380, 0.202163, 1, 0.99671, 1, 0.996292, 1, 1, 0.598925, 0.339914, 1, 0.764997, 1, 1, 1, 1, 0.99671, 1, 1, 0.996292, 1, 1, 1, 1, 1, 1, 1, 1, 1, 1, 1, 1, 1, 1, 1, 1, 1, 1, 1
381, 0.203895, 1, 0.997067, 1, 0.996333, 1, 1, 0.602291, 0.340774, 1, 0.765458, 1, 1, 1, 1, 0.997067, 1, 1, 0.996333, 1, 1, 1, 1, 1, 1, 1, 1, 1, 1, 1, 1, 1, 1, 1, 1, 1, 1, 1
382, 0.205748, 1, 0.997938, 1, 0.996468, 1, 1, 0.605629, 0.341629, 1, 0.765917, 1, 1, 1, 1, 0.997938, 1, 1, 0.996468, 1, 1, 1, 1, 1, 1, 1, 1, 1, 1, 1, 1, 1, 1, 1, 1, 1, 1, 1
383, 0.207573, 1, 0.998807, 1, 0.996482, 1, 1, 0.60894, 0.342485, 1, 0.766375, 1, 1, 1, 1, 0.998807, 1, 1, 0.996483, 0.999999, 1, 1, 1, 1, 1, 1, 1, 1, 1, 1, 1, 1, 1, 1, 1, 1, 1, 1
384, 0.209311, 1, 0.999389, 1, 0.996368, 1, 1, 0.612222, 0.34334, 1, 0.766832, 1, 1, 1, 1, 0.999389, 1, 1, 0.996368, 1, 1, 1, 1, 1, 1, 1, 1, 1, 1, 1, 1, 1, 1, 1, 1, 1, 1, 1
385, 0.211002, 1, 0.999697, 1, 0.996327, 1, 1, 0.615477, 0.344191, 1, 0.767286, 1, 1, 1, 1, 0.999697, 1, 1, 0.996327, 1, 1, 1, 1, 1, 1, 1, 1, 1, 1, 1, 1, 1, 1, 1, 1, 1, 1, 1
386, 0.212673, 1, 0.999843, 1, 0.99639, 1, 1, 0.618705, 0.345036, 1, 0.767736, 1, 1, 1, 1, 0.999843, 1, 1, 0.99639, 1, 1, 1, 1, 1, 1, 1, 1, 1, 1, 1, 1, 1, 1, 1, 1, 1, 1, 1
387, 0.214307, 1, 0.999899, 1, 0.996385, 1, 1, 0.621905, 0.345879, 1, 0.768184, 1, 1, 1, 1, 0.999899, 1, 1, 0.996385, 1, 1, 1, 1, 1, 1, 1, 1, 1, 1, 1, 1, 1, 1, 1, 1, 1, 1, 1
388, 0.215914, 0.999998, 0.999911, 1, 0.996317, 1, 1, 0.625079, 0.346725, 1, 0.768632, 1, 1, 1, 1, 0.999911, 1, 1, 0.996317, 1, 1, 1, 1, 1, 1, 1, 1, 1, 1, 1, 1, 1, 1, 1, 1, 1, 1, 1
389, 0.217519, 0.999987, 0.999911, 1, 0.99627, 1, 1, 0.628226, 0.347572, 1, 0.769081, 1, 1, 1, 1, 0.999911, 1, 1, 0.99627, 1, 1, 1, 1, 1, 1, 1, 1, 1, 1, 1, 1, 1, 1, 1, 1, 1, 1, 1
390, 0.219124, 0.999965, 0.999924, 1, 0.996253, 1, 1, 0.631346, 0.348416, 1, 0.769525, 1, 1, 1, 1, 0.999924, 1, 1, 0.996254, 1, 1, 1, 1, 1, 1, 1, 1, 1, 1, 1, 1, 1, 1, 1, 1, 1, 1, 1
391, 0.220724, 0.999952, 0.999957, 1, 0.996216, 1, 1, 0.634438, 0.349254, 1, 0.769966, 1, 1, 1, 1, 0.999957, 1, 1, 0.996216, 1, 1, 1, 1, 1, 1, 1, 1, 1, 1, 1, 1, 1, 1, 1, 1, 1, 1, 1
392, 0.222336, 0.999956, 0.999988, 1, 0.996241, 1, 1, 0.637505, 0.350091, 1, 0.770405, 1, 1, 1, 1, 0.999988, 1, 1, 0.996241, 1, 1, 1, 1, 1, 1, 1, 1, 1, 1, 1, 1, 1, 1, 1, 1, 1, 1, 1
393, 0.223973, 0.999967, 0.999999, 1, 0.996407, 1, 1, 0.640546, 0.35093, 1, 0.770842, 1, 1, 1, 1, 0.999999, 1, 1, 0.996407, 1, 1, 1, 1, 1, 1, 1, 1, 1, 1, 1, 1, 1, 1, 1, 1, 1, 1, 1
394, 0.225585, 0.999979, 1, 1, 0.99648, 1, 1, 0.64356, 0.35177, 1, 0.771281, 1, 1, 1, 1, 1, 1, 1, 0.99648, 1, 1, 1, 1, 1, 1, 1, 1, 1, 1, 1, 1, 1, 1, 1, 1, 1, 1, 1
395, 0.227143, 0.999966, 1, 1, 0.996365, 1, 1, 0.646548, 0.352608, 1, 0.771718, 1, 1, 1, 1, 1, 1, 1, 0.996365, 1, 1, 1, 1, 1, 1, 1, 1, 1, 1, 1, 1, 1, 1, 1, 1, 1, 1, 1
396, 0.228687, 0.999851, 1, 1, 0.996328, 1, 1, 0.64951, 0.353439, 1, 0.772152, 1, 1, 1, 1, 1, 1, 1, 0.996328, 1, 1, 1, 1, 1, 1, 1, 1, 1, 1, 1, 1, 1, 1, 1, 1, 1, 1, 1
397, 0.23022, 0.999693, 1, 1, 0.996328, 1, 1, 0.652447, 0.354263, 1, 0.772583, 1, 1, 1, 1, 1, 1, 1, 0.996328, 1, 1, 1, 1, 1, 1, 1, 1, 1, 1, 1, 1, 1, 1, 1, 1, 1, 1, 1
398, 0.231751, 0.999655, 1, 1, 0.996224, 1, 1, 0.655358, 0.355086, 1, 0.773013, 1, 1, 1, 1, 1, 1, 1, 0.996224, 1, 1, 1, 1, 1, 1, 1, 1, 1, 1, 1, 1, 1, 1, 1, 1, 1, 1, 1
399, 0.233301, 0.999703, 0.999986, 1, 0.996142, 1, 1, 0.658243, 0.355911, 1, 0.773443, 1, 1, 1, 1, 0.999986, 1, 1, 0.996142, 1, 1, 1, 1, 1, 1, 1, 1, 1, 1, 1, 1, 1, 1, 1, 1, 1, 1, 1
400, 0.234844, 0.99977, 0.999953, 1, 0.996056, 1, 1, 0.661104, 0.356733, 1, 0.77387, 1, 1, 1, 1, 0.999953, 1, 1, 0.996056, 1, 1, 1, 1, 1, 1, 1, 1, 1, 1, 1, 1, 1, 1, 1, 1, 1, 1, 1
401, 0.236418, 0.999856, 0.999925, 1, 0.996107, 1, 1, 0.663939, 0.357552, 1, 0.774294, 1, 1, 1, 1, 0.999925, 1, 1, 0.996107, 1, 1, 1, 1, 1, 1, 1, 1, 1, 1, 1, 1, 1, 1, 1, 1, 1, 1, 1
402, 0.238037, 0.999917, 0.999915, 1, 0.99637, 1, 1, 0.666748, 0.35837, 1, 0.774715, 1, 1, 1, 1, 0.999915, 1, 1, 0.99637, 1, 1, 1, 1, 1, 1, 1, 1, 1, 1, 1, 1, 1, 1, 1, 1, 1, 1, 1
403, 0.239616, 0.999951, 0.999912, 1, 0.996499, 1, 1, 0.669533, 0.359189, 1, 0.775137, 1, 1, 1, 1, 0.999912, 1, 1, 0.996499, 1, 1, 1, 1, 1, 1, 1, 1, 1, 1, 1, 1, 1, 1, 1, 1, 1, 1, 1
404, 0.241122, 0.99997, 0.999911, 1, 0.996359, 1, 1, 0.672295, 0.360008, 1, 0.775558, 1, 1, 1, 1, 0.999911, 1, 1, 0.996359, 1, 1, 1, 1, 1, 1, 1, 1, 1, 1, 1, 1, 1, 1, 1, 1, 1, 1, 1
405, 0.242635, 0.999982, 0.999911, 1, 0.996285, 1, 1, 0.67503, 0.36082, 1, 0.775975, 1, 1, 1, 1, 0.999911, 1, 1, 0.996285, 1, 1, 1, 1, 1, 1, 1, 1, 1, 1, 1, 1, 1, 1, 1, 1, 1, 1, 1
406, 0.244213, 0.999991, 0.999928, 0.999996, 0.996501, 1, 1, 0.677742, 0.361626, 1, 0.776389, 1, 1, 1, 1, 0.999928, 1, 1, 0.996501, 1, 1, 1, 1, 1, 1, 1, 1, 1, 1, 1, 1, 1, 1, 1, 1, 1, 1, 1
407, 0.245753, 0.999996, 0.999965, 0.999979, 0.996585, 1, 1, 0.680431, 0.36243, 1, 0.776802, 1, 1, 1, 1, 0.999965, 1, 1, 0.996585, 1, 1, 1, 1, 1, 1, 1, 1, 1, 1, 1, 1, 1, 1, 1, 1, 1, 1, 1
408, 0.247192, 0.999996, 0.999993, 0.99995, 0.996298, 1, 1, 0.683094, 0.363236, 1, 0.777214, 1, 1, 1, 1, 0.999993, 1, 1, 0.996298, 1, 1, 1, 1, 1, 1, 1, 1, 1, 1, 1, 1, 1, 1, 1, 1, 1, 1, 1
