case index 0 = {
num freq, 1701
num column, 38
Waveln,  combin,  H2O,  umix,  O3,  trace,  N2,  H2Ocnt,  molec,  aercld,  HNO3,  aercld,  CO2,  CO,  CH4,  N2O,  O2,  NH3,  NO,  NO2,  SO2,  cloud,  F11,  F12,  CCl3F,  CF4,  F22,  F113,  F114,  R115,  ClONO2,  HNO4,  CHCl2F,  CCl4,  N2O5,  H2-H2,  H2-HE,  H2-CH4,  CH4-CH4
  [nm],  trans,  trans,  trans,  trans,  trans,  trans,  trans,  scat,  trans,  trans,  abtrns,  trans,  trans,  trans,  trans,  trans,  trans,  trans,  trans,  trans,  trans,  trans,  trans,  trans,  trans,  trans,  trans,  trans,  trans,  trans,  trans,  trans,  trans,  trans,  trans,  trans,  trans,  trans
300, 2.86273e-21, 1, 1, 1.0747e-07, 0.985918, 1, 1, 0.00116428, 1.95608e-11, 1, 0.00111399, 1, 1, 1, 1, 1, 1, 1, 0.996266, 0.989612, 1, 1, 1, 1, 1, 1, 1, 1, 1, 1, 1, 1, 1, 1, 1, 1, 1, 1
301, 1.98997e-20, 1, 1, 6.62806e-07, 0.987274, 1, 1, 0.00128192, 2.05226e-11, 1, 0.00113455, 1, 1, 1, 1, 1, 1, 1, 0.996177, 0.991063, 1, 1, 1, 1, 1, 1, 1, 1, 1, 1, 1, 1, 1, 1, 1, 1, 1, 1
302, 1.4709e-19, 1, 1, 4.22682e-06, 0.987916, 1, 1, 0.00140899, 2.16092e-11, 1, 0.00115494, 1, 1, 1, 1, 1, 1, 1, 0.995902, 0.991981, 1, 1, 1, 1, 1, 1, 1, 1, 1, 1, 1, 1, 1, 1, 1, 1, 1, 1
303, 6.58472e-19, 1, 1, 1.69033e-05, 0.988185, 1, 1, 0.00154602, 2.27641e-11, 1, 0.00117562, 1, 1, 1, 1, 1, 1, 1, 0.995593, 0.992559, 1, 1, 1, 1, 1, 1, 1, 1, 1, 1, 1, 1, 1, 1, 1, 1, 1, 1
304, 3.20643e-18, 1, 1, 7.07205e-05, 0.988662, 1, 1, 0.00169357, 2.3979e-11, 1, 0.00119662, 1, 1, 1, 1, 1, 1, 1, 0.995422, 0.993208, 1, 1, 1, 1, 1, 1, 1, 1, 1, 1, 1, 1, 1, 1, 1, 1, 1, 1
305, 1.10325e-17, 1, 1, 0.00021792, 0.989174, 1, 1, 0.00185218, 2.52513e-11, 1, 0.00121779, 1, 1, 1, 1, 1, 1, 1, 0.995355, 0.993791, 1, 1, 1, 1, 1, 1, 1, 1, 1, 1, 1, 1, 1, 1, 1, 1, 1, 1
306, 3.67153e-17, 1, 1, 0.000628126, 0.98941, 1, 1, 0.00202243, 2.6581e-11, 1, 0.00123904, 1, 1, 1, 1, 1, 1, 1, 0.99528, 0.994101, 1, 1, 1, 1, 1, 1, 1, 1, 1, 1, 1, 1, 1, 1, 1, 1, 1, 1
307, 1.06016e-16, 1, 1, 0.00160638, 0.989616, 1, 1, 0.0022049, 2.79758e-11, 1, 0.00126053, 1, 1, 1, 1, 1, 1, 1, 0.99516, 0.99443, 1, 1, 1, 1, 1, 1, 1, 1, 1, 1, 1, 1, 1, 1, 1, 1, 1, 1
308, 2.56071e-16, 1, 1, 0.0034293, 0.990073, 1, 1, 0.00240017, 2.94431e-11, 1, 0.00128237, 1, 1, 1, 1, 1, 1, 1, 0.994992, 0.995056, 1, 1, 1, 1, 1, 1, 1, 1, 1, 1, 1, 1, 1, 1, 1, 1, 1, 1
309, 6.12404e-16, 1, 1, 0.00716719, 0.990211, 1, 1, 0.00260885, 3.09833e-11, 1, 0.00130453, 1, 1, 1, 1, 1, 1, 1, 0.994731, 0.995456, 1, 1, 1, 1, 1, 1, 1, 1, 1, 1, 1, 1, 1, 1, 1, 1, 1, 1
310, 1.27249e-15, 1, 1, 0.013279, 0.990435, 1, 1, 0.00283154, 3.25887e-11, 1, 0.00132684, 1, 1, 1, 1, 1, 1, 1, 0.99449, 0.995923, 1, 1, 1, 1, 1, 1, 1, 1, 1, 1, 1, 1, 1, 1, 1, 1, 1, 1
311, 2.45943e-15, 1, 1, 0.0225256, 0.990815, 1, 1, 0.00306885, 3.42584e-11, 1, 0.00134923, 1, 1, 1, 1, 1, 1, 1, 0.994319, 0.996476, 1, 1, 1, 1, 1, 1, 1, 1, 1, 1, 1, 1, 1, 1, 1, 1, 1, 1
312, 4.61867e-15, 1, 1, 0.0373445, 0.991182, 1, 1, 0.00332141, 3.60052e-11, 1, 0.00137188, 1, 1, 1, 1, 1, 1, 1, 0.994147, 0.997017, 1, 1, 1, 1, 1, 1, 1, 1, 1, 1, 1, 1, 1, 1, 1, 1, 1, 1
313, 7.89694e-15, 1, 1, 0.05669, 0.991454, 1, 1, 0.00358984, 3.78403e-11, 1, 0.0013949, 1, 1, 1, 1, 1, 1, 1, 0.994048, 0.997391, 1, 1, 1, 1, 1, 1, 1, 1, 1, 1, 1, 1, 1, 1, 1, 1, 1, 1
314, 1.30136e-14, 1, 1, 0.0824085, 0.99172, 1, 1, 0.00387478, 3.97647e-11, 1, 0.00141825, 1, 1, 1, 1, 1, 1, 1, 0.993915, 0.997791, 1, 1, 1, 1, 1, 1, 1, 1, 1, 1, 1, 1, 1, 1, 1, 1, 1, 1
315, 2.03157e-14, 1, 1, 0.114409, 0.991835, 1, 1, 0.00417685, 4.17686e-11, 1, 0.00144177, 1, 1, 1, 1, 1, 1, 1, 0.993694, 0.998129, 1, 1, 1, 1, 1, 1, 1, 1, 1, 1, 1, 1, 1, 1, 1, 1, 1, 1
316, 3.00109e-14, 1, 1, 0.150006, 0.991828, 1, 1, 0.0044967, 4.38483e-11, 1, 0.00146537, 1, 1, 1, 1, 1, 1, 1, 0.993503, 0.998315, 1, 1, 1, 1, 1, 1, 1, 1, 1, 1, 1, 1, 1, 1, 1, 1, 1, 1
317, 4.27306e-14, 1, 1, 0.189817, 0.991771, 1, 1, 0.00483496, 4.60191e-11, 1, 0.00148921, 1, 1, 1, 1, 1, 1, 1, 0.993209, 0.998552, 1, 1, 1, 1, 1, 1, 1, 1, 1, 1, 1, 1, 1, 1, 1, 1, 1, 1
318, 6.18965e-14, 1, 1, 0.243259, 0.991758, 1, 1, 0.00519227, 4.8296e-11, 1, 0.00151342, 1, 1, 1, 1, 1, 1, 1, 0.992928, 0.998821, 1, 1, 1, 1, 1, 1, 1, 1, 1, 1, 1, 1, 1, 1, 1, 1, 1, 1
319, 8.40388e-14, 1, 1, 0.296307, 0.99189, 1, 1, 0.00556928, 5.06824e-11, 1, 0.00153798, 1, 1, 1, 1, 1, 1, 1, 0.992785, 0.999098, 1, 1, 1, 1, 1, 1, 1, 1, 1, 1, 1, 1, 1, 1, 1, 1, 1, 1
320, 1.11757e-13, 1, 1, 0.349155, 0.991904, 1, 1, 0.0059666, 5.31709e-11, 1, 0.00156273, 1, 1, 1, 1, 1, 1, 1, 0.992628, 0.999271, 1, 1, 1, 1, 1, 1, 1, 1, 1, 1, 1, 1, 1, 1, 1, 1, 1, 1
321, 1.47558e-13, 1, 1, 0.412614, 0.991946, 1, 1, 0.00638489, 5.57574e-11, 1, 0.00158755, 1, 1, 1, 1, 1, 1, 1, 0.992522, 0.999421, 1, 1, 1, 1, 1, 1, 1, 1, 1, 1, 1, 1, 1, 1, 1, 1, 1, 1
322, 1.78708e-13, 1, 1, 0.449332, 0.991947, 1, 1, 0.00682476, 5.84566e-11, 1, 0.0016126, 1, 1, 1, 1, 1, 1, 1, 0.992365, 0.99958, 1, 1, 1, 1, 1, 1, 1, 1, 1, 1, 1, 1, 1, 1, 1, 1, 1, 1
323, 2.27835e-13, 1, 1, 0.50606, 0.99185, 1, 1, 0.00728684, 6.12847e-11, 1, 0.00163801, 1, 1, 1, 1, 1, 1, 1, 0.992154, 0.999694, 1, 1, 1, 1, 1, 1, 1, 1, 1, 1, 1, 1, 1, 1, 1, 1, 1, 1
324, 2.85537e-13, 1, 1, 0.573238, 0.991788, 1, 1, 0.00777176, 6.42466e-11, 1, 0.00166381, 1, 1, 1, 1, 1, 1, 1, 0.992008, 0.999779, 1, 1, 1, 1, 1, 1, 1, 1, 1, 1, 1, 1, 1, 1, 1, 1, 1, 1
325, 3.30656e-13, 1, 1, 0.595597, 0.991639, 1, 1, 0.00828011, 6.73295e-11, 1, 0.00168981, 1, 1, 1, 1, 1, 1, 1, 0.991806, 0.999832, 1, 1, 1, 1, 1, 1, 1, 1, 1, 1, 1, 1, 1, 1, 1, 1, 1, 1
326, 4.05795e-13, 1, 1, 0.650831, 0.991489, 1, 1, 0.00881251, 7.05192e-11, 1, 0.00171588, 1, 1, 1, 1, 1, 1, 1, 0.991614, 0.999874, 1, 1, 1, 1, 1, 1, 1, 1, 1, 1, 1, 1, 1, 1, 1, 1, 1, 1
327, 4.79725e-13, 1, 1, 0.698239, 0.99142, 1, 1, 0.00936955, 7.38324e-11, 1, 0.00174211, 1, 1, 1, 1, 1, 1, 1, 0.991508, 0.999911, 1, 1, 1, 1, 1, 1, 1, 1, 1, 1, 1, 1, 1, 1, 1, 1, 1, 1
328, 5.44791e-13, 1, 1, 0.710953, 0.991282, 1, 1, 0.00995182, 7.72958e-11, 1, 0.0017687, 1, 1, 1, 1, 1, 1, 1, 0.991347, 0.999934, 1, 1, 1, 1, 1, 1, 1, 1, 1, 1, 1, 1, 1, 1, 1, 1, 1, 1
329, 6.57735e-13, 1, 1, 0.769738, 0.991059, 1, 1, 0.0105599, 8.09207e-11, 1, 0.00179569, 1, 1, 1, 1, 1, 1, 1, 0.991109, 0.999949, 1, 1, 1, 1, 1, 1, 1, 1, 1, 1, 1, 1, 1, 1, 1, 1, 1, 1
330, 7.55762e-13, 1, 1, 0.804185, 0.990938, 1, 1, 0.0111943, 8.47006e-11, 1, 0.00182296, 1, 1, 1, 1, 1, 1, 1, 0.990975, 0.999964, 1, 1, 1, 1, 1, 1, 1, 1, 1, 1, 1, 1, 1, 1, 1, 1, 1, 1
331, 8.35698e-13, 1, 1, 0.800417, 0.990839, 1, 1, 0.0118556, 8.86194e-11, 1, 0.00185033, 1, 1, 1, 1, 1, 1, 1, 0.990861, 0.999977, 1, 1, 1, 1, 1, 1, 1, 1, 1, 1, 1, 1, 1, 1, 1, 1, 1, 1
332, 9.74546e-13, 1, 1, 0.840721, 0.990401, 1, 1, 0.0125444, 9.26852e-11, 1, 0.00187782, 1, 1, 1, 1, 1, 1, 1, 0.990415, 0.999986, 1, 1, 1, 1, 1, 1, 1, 1, 1, 1, 1, 1, 1, 1, 1, 1, 1, 1
333, 1.111e-12, 1, 1, 0.871819, 0.990051, 1, 1, 0.0132612, 9.69266e-11, 1, 0.00190564, 1, 1, 1, 1, 1, 1, 1, 0.990063, 0.999988, 1, 1, 1, 1, 1, 1, 1, 1, 1, 1, 1, 1, 1, 1, 1, 1, 1, 1
334, 1.23581e-12, 1, 0.999793, 0.876415, 0.990147, 1, 1, 0.0140064, 1.01395e-10, 1, 0.00193389, 1, 1, 1, 1, 0.999793, 1, 1, 0.990157, 0.99999, 1, 1, 1, 1, 1, 1, 1, 1, 1, 1, 1, 1, 1, 1, 1, 1, 1, 1
335, 1.42109e-12, 1, 0.99915, 0.909887, 0.990111, 1, 1, 0.0147806, 1.06275e-10, 1, 0.00196274, 1, 1, 1, 1, 0.99915, 1, 1, 0.990118, 0.999993, 1, 1, 1, 1, 1, 1, 1, 1, 1, 1, 1, 1, 1, 1, 1, 1, 1, 1
336, 1.6016e-12, 1, 0.998416, 0.929813, 0.98997, 1, 1, 0.0155843, 1.11734e-10, 1, 0.00199232, 1, 1, 1, 1, 0.998416, 1, 1, 0.989974, 0.999996, 1, 1, 1, 1, 1, 1, 1, 1, 1, 1, 1, 1, 1, 1, 1, 1, 1, 1
337, 1.753e-12, 1, 0.998008, 0.917545, 0.989892, 1, 1, 0.0164178, 1.17683e-10, 1, 0.00202254, 1, 1, 1, 1, 0.998008, 1, 1, 0.989894, 0.999999, 1, 1, 1, 1, 1, 1, 1, 1, 1, 1, 1, 1, 1, 1, 1, 1, 1, 1
338, 1.97129e-12, 1, 0.997754, 0.92804, 0.989467, 1, 1, 0.0172817, 1.23986e-10, 1, 0.00205324, 1, 1, 1, 1, 0.997754, 1, 1, 0.989468, 1, 1, 1, 1, 1, 1, 1, 1, 1, 1, 1, 1, 1, 1, 1, 1, 1, 1, 1
339, 2.23548e-12, 1, 0.997291, 0.951553, 0.988924, 1, 1, 0.0181764, 1.30711e-10, 1, 0.00208447, 1, 1, 1, 1, 0.997291, 1, 1, 0.988924, 1, 1, 1, 1, 1, 1, 1, 1, 1, 1, 1, 1, 1, 1, 1, 1, 1, 1, 1
340, 2.48708e-12, 1, 0.996369, 0.95597, 0.988591, 1, 1, 0.0191023, 1.38068e-10, 1, 0.00211635, 1, 1, 1, 1, 0.996369, 1, 1, 0.988592, 1, 1, 1, 1, 1, 1, 1, 1, 1, 1, 1, 1, 1, 1, 1, 1, 1, 1, 1
341, 2.78169e-12, 1, 0.994871, 0.962098, 0.988456, 1, 1, 0.0200597, 1.4614e-10, 1, 0.00214893, 1, 1, 1, 1, 0.994871, 1, 1, 0.988456, 1, 1, 1, 1, 1, 1, 1, 1, 1, 1, 1, 1, 1, 1, 1, 1, 1, 1, 1
342, 3.12985e-12, 1, 0.993031, 0.975823, 0.988771, 1, 1, 0.021049, 1.54806e-10, 1, 0.0021821, 1, 1, 1, 1, 0.993031, 1, 1, 0.988771, 0.999999, 1, 1, 1, 1, 1, 1, 1, 1, 1, 1, 1, 1, 1, 1, 1, 1, 1, 1
343, 3.46758e-12, 1, 0.991644, 0.975791, 0.989069, 1, 1, 0.0220707, 1.63992e-10, 1, 0.00221578, 1, 1, 1, 1, 0.991644, 1, 1, 0.98907, 0.999999, 1, 1, 1, 1, 1, 1, 1, 1, 1, 1, 1, 1, 1, 1, 1, 1, 1, 1
344, 3.8246e-12, 1, 0.991782, 0.969178, 0.988824, 1, 1, 0.0231249, 1.73715e-10, 1, 0.00224995, 1, 1, 1, 1, 0.991782, 1, 1, 0.988824, 0.999999, 1, 1, 1, 1, 1, 1, 1, 1, 1, 1, 1, 1, 1, 1, 1, 1, 1, 1
345, 4.27651e-12, 1, 0.993691, 0.974963, 0.98833, 1, 1, 0.0242121, 1.83945e-10, 1, 0.00228441, 1, 1, 1, 1, 0.993691, 1, 1, 0.988331, 1, 1, 1, 1, 1, 1, 1, 1, 1, 1, 1, 1, 1, 1, 1, 1, 1, 1, 1
346, 4.79558e-12, 1, 0.996107, 0.986032, 0.987848, 1, 1, 0.0253324, 1.94651e-10, 1, 0.00231897, 1, 1, 1, 1, 0.996107, 1, 1, 0.987848, 0.999999, 1, 1, 1, 1, 1, 1, 1, 1, 1, 1, 1, 1, 1, 1, 1, 1, 1, 1
347, 5.33162e-12, 1, 0.997726, 0.990742, 0.987318, 1, 1, 0.0264863, 2.05894e-10, 1, 0.00235377, 1, 1, 1, 1, 0.997726, 1, 1, 0.987318, 0.999999, 1, 1, 1, 1, 1, 1, 1, 1, 1, 1, 1, 1, 1, 1, 1, 1, 1, 1
348, 5.9058e-12, 1, 0.998441, 0.992703, 0.986927, 1, 1, 0.0276738, 2.17768e-10, 1, 0.00238904, 1, 1, 1, 1, 0.998441, 1, 1, 0.986928, 0.999999, 1, 1, 1, 1, 1, 1, 1, 1, 1, 1, 1, 1, 1, 1, 1, 1, 1, 1
349, 6.54193e-12, 1, 0.998593, 0.995323, 0.987261, 1, 1, 0.0288952, 2.30307e-10, 1, 0.00242478, 1, 1, 1, 1, 0.998593, 1, 1, 0.987262, 0.999999, 1, 1, 1, 1, 1, 1, 1, 1, 1, 1, 1, 1, 1, 1, 1, 1, 1, 1
350, 7.22338e-12, 1, 0.998438, 0.99638, 0.987684, 1, 1, 0.0301508, 2.43461e-10, 1, 0.00246083, 1, 1, 1, 1, 0.998438, 1, 1, 0.987685, 0.999998, 1, 1, 1, 1, 1, 1, 1, 1, 1, 1, 1, 1, 1, 1, 1, 1, 1, 1
351, 7.94083e-12, 1, 0.998148, 0.994844, 0.987572, 1, 1, 0.0314408, 2.57206e-10, 1, 0.00249707, 1, 1, 1, 1, 0.998148, 1, 1, 0.987573, 0.999999, 1, 1, 1, 1, 1, 1, 1, 1, 1, 1, 1, 1, 1, 1, 1, 1, 1, 1
352, 8.73014e-12, 1, 0.997703, 0.993916, 0.987653, 1, 1, 0.0327651, 2.71638e-10, 1, 0.00253364, 1, 1, 1, 1, 0.997703, 1, 1, 0.987654, 0.999999, 1, 1, 1, 1, 1, 1, 1, 1, 1, 1, 1, 1, 1, 1, 1, 1, 1, 1
353, 9.61356e-12, 1, 0.997048, 0.995991, 0.987393, 1, 1, 0.0341241, 2.86868e-10, 1, 0.00257073, 1, 1, 1, 1, 0.997048, 1, 1, 0.987396, 0.999998, 1, 1, 1, 1, 1, 1, 1, 1, 1, 1, 1, 1, 1, 1, 1, 1, 1, 1
354, 1.05677e-11, 1, 0.996128, 0.99823, 0.98642, 1, 1, 0.0355179, 3.02922e-10, 1, 0.00260828, 1, 1, 1, 1, 0.996128, 1, 1, 0.986422, 0.999998, 1, 1, 1, 1, 1, 1, 1, 1, 1, 1, 1, 1, 1, 1, 1, 1, 1, 1
355, 1.15871e-11, 1, 0.994645, 0.998652, 0.986148, 1, 1, 0.0369464, 3.19752e-10, 1, 0.00264606, 1, 1, 1, 1, 0.994645, 1, 1, 0.986149, 0.999999, 1, 1, 1, 1, 1, 1, 1, 1, 1, 1, 1, 1, 1, 1, 1, 1, 1, 1
356, 1.26703e-11, 1, 0.992124, 0.998299, 0.986175, 1, 1, 0.0384098, 3.37349e-10, 1, 0.00268396, 1, 1, 1, 1, 0.992124, 1, 1, 0.986176, 0.999999, 1, 1, 1, 1, 1, 1, 1, 1, 1, 1, 1, 1, 1, 1, 1, 1, 1, 1
357, 1.38164e-11, 1, 0.988094, 0.997936, 0.985706, 1, 1, 0.0399082, 3.55831e-10, 1, 0.00272219, 1, 1, 1, 1, 0.988094, 1, 1, 0.985707, 0.999998, 1, 1, 1, 1, 1, 1, 1, 1, 1, 1, 1, 1, 1, 1, 1, 1, 1, 1
358, 1.5053e-11, 1, 0.982471, 0.99811, 0.985938, 1, 1, 0.0414416, 3.75315e-10, 1, 0.00276094, 1, 1, 1, 1, 0.982471, 1, 1, 0.985941, 0.999998, 1, 1, 1, 1, 1, 1, 1, 1, 1, 1, 1, 1, 1, 1, 1, 1, 1, 1
359, 1.63883e-11, 1, 0.976329, 0.998383, 0.986653, 1, 1, 0.04301, 3.95811e-10, 1, 0.00280016, 1, 1, 1, 1, 0.976329, 1, 1, 0.986656, 0.999998, 1, 1, 1, 1, 1, 1, 1, 1, 1, 1, 1, 1, 1, 1, 1, 1, 1, 1
360, 1.78433e-11, 1, 0.972193, 0.998394, 0.986529, 1, 1, 0.0446133, 4.17226e-10, 1, 0.00283962, 1, 1, 1, 1, 0.972193, 1, 1, 0.98653, 0.999998, 1, 1, 1, 1, 1, 1, 1, 1, 1, 1, 1, 1, 1, 1, 1, 1, 1, 1
361, 1.95102e-11, 1, 0.973248, 0.99859, 0.985959, 1, 1, 0.0462516, 4.39552e-10, 1, 0.00287925, 1, 1, 1, 1, 0.973248, 1, 1, 0.98596, 0.999998, 1, 1, 1, 1, 1, 1, 1, 1, 1, 1, 1, 1, 1, 1, 1, 1, 1, 1
362, 2.14531e-11, 1, 0.980053, 0.998997, 0.985816, 1, 1, 0.0479248, 4.6296e-10, 1, 0.00291926, 1, 1, 1, 1, 0.980053, 1, 1, 0.985818, 0.999998, 1, 1, 1, 1, 1, 1, 1, 1, 1, 1, 1, 1, 1, 1, 1, 1, 1, 1
363, 2.36073e-11, 1, 0.988469, 0.999333, 0.985866, 1, 1, 0.0496328, 4.87605e-10, 1, 0.00295982, 1, 1, 1, 1, 0.988469, 1, 1, 0.985869, 0.999997, 1, 1, 1, 1, 1, 1, 1, 1, 1, 1, 1, 1, 1, 1, 1, 1, 1, 1
364, 2.58706e-11, 1, 0.994365, 0.999459, 0.985377, 1, 1, 0.0513756, 5.13508e-10, 1, 0.00300086, 1, 1, 1, 1, 0.994365, 1, 1, 0.985379, 0.999998, 1, 1, 1, 1, 1, 1, 1, 1, 1, 1, 1, 1, 1, 1, 1, 1, 1, 1
365, 2.82416e-11, 1, 0.997381, 0.999561, 0.984711, 1, 1, 0.053153, 5.40556e-10, 1, 0.00304213, 1, 1, 1, 1, 0.997381, 1, 1, 0.984712, 0.999998, 1, 1, 1, 1, 1, 1, 1, 1, 1, 1, 1, 1, 1, 1, 1, 1, 1, 1
366, 3.07784e-11, 1, 0.998748, 0.999824, 0.984826, 1, 1, 0.0549649, 5.68714e-10, 1, 0.00308352, 1, 1, 1, 1, 0.998748, 1, 1, 0.984827, 0.999999, 1, 1, 1, 1, 1, 1, 1, 1, 1, 1, 1, 1, 1, 1, 1, 1, 1, 1
367, 3.34933e-11, 1, 0.999328, 0.999989, 0.985147, 1, 1, 0.0568112, 5.98181e-10, 1, 0.00312525, 1, 1, 1, 1, 0.999328, 1, 1, 0.985148, 0.999999, 1, 1, 1, 1, 1, 1, 1, 1, 1, 1, 1, 1, 1, 1, 1, 1, 1, 1
368, 3.64004e-11, 1, 0.999527, 1, 0.985152, 1, 1, 0.0586916, 6.29157e-10, 1, 0.00316752, 1, 1, 1, 1, 0.999527, 1, 1, 0.985154, 0.999998, 1, 1, 1, 1, 1, 1, 1, 1, 1, 1, 1, 1, 1, 1, 1, 1, 1, 1
369, 3.95353e-11, 1, 0.999562, 1, 0.985243, 1, 1, 0.060606, 6.6168e-10, 1, 0.00321029, 1, 1, 1, 1, 0.999562, 1, 1, 0.985246, 0.999997, 1, 1, 1, 1, 1, 1, 1, 1, 1, 1, 1, 1, 1, 1, 1, 1, 1, 1
370, 4.29025e-11, 1, 0.999562, 1, 0.985325, 1, 1, 0.0625544, 6.95641e-10, 1, 0.0032533, 1, 1, 1, 1, 0.999562, 1, 1, 0.985328, 0.999997, 1, 1, 1, 1, 1, 1, 1, 1, 1, 1, 1, 1, 1, 1, 1, 1, 1, 1
371, 4.64887e-11, 1, 0.999561, 1, 0.98489, 1, 1, 0.0645362, 7.31011e-10, 1, 0.00329645, 1, 1, 1, 1, 0.999561, 1, 1, 0.984892, 0.999998, 1, 1, 1, 1, 1, 1, 1, 1, 1, 1, 1, 1, 1, 1, 1, 1, 1, 1
372, 5.03362e-11, 1, 0.999557, 1, 0.98428, 1, 1, 0.0665514, 7.68012e-10, 1, 0.00333994, 1, 1, 1, 1, 0.999557, 1, 1, 0.984281, 0.999999, 1, 1, 1, 1, 1, 1, 1, 1, 1, 1, 1, 1, 1, 1, 1, 1, 1, 1
373, 5.45201e-11, 1, 0.999483, 1, 0.98449, 1, 1, 0.0685998, 8.0687e-10, 1, 0.00338399, 1, 1, 1, 1, 0.999483, 1, 1, 0.984492, 0.999999, 1, 1, 1, 1, 1, 1, 1, 1, 1, 1, 1, 1, 1, 1, 1, 1, 1, 1
374, 5.90185e-11, 1, 0.999228, 1, 0.984906, 1, 1, 0.070681, 8.47639e-10, 1, 0.00342857, 1, 1, 1, 1, 0.999228, 1, 1, 0.984909, 0.999997, 1, 1, 1, 1, 1, 1, 1, 1, 1, 1, 1, 1, 1, 1, 1, 1, 1, 1
375, 6.37475e-11, 1, 0.998608, 1, 0.984335, 1, 1, 0.0727948, 8.90144e-10, 1, 0.00347345, 1, 1, 1, 1, 0.998608, 1, 1, 0.984338, 0.999997, 1, 1, 1, 1, 1, 1, 1, 1, 1, 1, 1, 1, 1, 1, 1, 1, 1, 1
376, 6.87283e-11, 1, 0.997185, 1, 0.983632, 1, 1, 0.074941, 9.34235e-10, 1, 0.00351845, 1, 1, 1, 1, 0.997185, 1, 1, 0.983634, 0.999998, 1, 1, 1, 1, 1, 1, 1, 1, 1, 1, 1, 1, 1, 1, 1, 1, 1, 1
377, 7.40356e-11, 1, 0.994392, 1, 0.984182, 1, 1, 0.0771191, 9.8018e-10, 1, 0.00356375, 1, 1, 1, 1, 0.994392, 1, 1, 0.984183, 0.999999, 1, 1, 1, 1, 1, 1, 1, 1, 1, 1, 1, 1, 1, 1, 1, 1, 1, 1
378, 7.96053e-11, 1, 0.990206, 1, 0.984849, 1, 1, 0.0793288, 1.02833e-09, 1, 0.00360958, 1, 1, 1, 1, 0.990206, 1, 1, 0.984851, 0.999999, 1, 1, 1, 1, 1, 1, 1, 1, 1, 1, 1, 1, 1, 1, 1, 1, 1, 1
379, 8.54466e-11, 1, 0.985949, 1, 0.984215, 1, 1, 0.0815698, 1.07881e-09, 1, 0.00365597, 1, 1, 1, 1, 0.985949, 1, 1, 0.984215, 0.999999, 1, 1, 1, 1, 1, 1, 1, 1, 1, 1, 1, 1, 1, 1, 1, 1, 1, 1
380, 9.18738e-11, 1, 0.983978, 1, 0.983399, 1, 1, 0.0838419, 1.13149e-09, 1, 0.00370275, 1, 1, 1, 1, 0.983978, 1, 1, 0.9834, 0.999999, 1, 1, 1, 1, 1, 1, 1, 1, 1, 1, 1, 1, 1, 1, 1, 1, 1, 1
381, 9.91714e-11, 1, 0.985708, 1, 0.983581, 1, 1, 0.0861446, 1.18615e-09, 1, 0.00374967, 1, 1, 1, 1, 0.985708, 1, 1, 0.983582, 0.999999, 1, 1, 1, 1, 1, 1, 1, 1, 1, 1, 1, 1, 1, 1, 1, 1, 1, 1
382, 1.07268e-10, 1, 0.989942, 1, 0.984182, 1, 1, 0.0884775, 1.24302e-09, 1, 0.00379686, 1, 1, 1, 1, 0.989942, 1, 1, 0.984184, 0.999999, 1, 1, 1, 1, 1, 1, 1, 1, 1, 1, 1, 1, 1, 1, 1, 1, 1, 1
383, 1.1589e-10, 1, 0.994172, 1, 0.984247, 1, 1, 0.0908403, 1.30251e-09, 1, 0.00384457, 1, 1, 1, 1, 0.994172, 1, 1, 0.984249, 0.999998, 1, 1, 1, 1, 1, 1, 1, 1, 1, 1, 1, 1, 1, 1, 1, 1, 1, 1
384, 1.24896e-10, 1, 0.997008, 1, 0.983736, 1, 1, 0.0932326, 1.36467e-09, 1, 0.00389275, 1, 1, 1, 1, 0.997008, 1, 1, 0.983737, 0.999999, 1, 1, 1, 1, 1, 1, 1, 1, 1, 1, 1, 1, 1, 1, 1, 1, 1, 1
385, 1.34377e-10, 1, 0.998516, 1, 0.983555, 1, 1, 0.095654, 1.42923e-09, 1, 0.00394114, 1, 1, 1, 1, 0.998516, 1, 1, 0.983556, 0.999999, 1, 1, 1, 1, 1, 1, 1, 1, 1, 1, 1, 1, 1, 1, 1, 1, 1, 1
386, 1.44415e-10, 1, 0.999229, 1, 0.983833, 1, 1, 0.0981041, 1.49621e-09, 1, 0.00398969, 1, 1, 1, 1, 0.999229, 1, 1, 0.983834, 0.999999, 1, 1, 1, 1, 1, 1, 1, 1, 1, 1, 1, 1, 1, 1, 1, 1, 1, 1
387, 1.55009e-10, 1, 0.999505, 1, 0.983813, 1, 1, 0.100582, 1.56608e-09, 1, 0.00403867, 1, 1, 1, 1, 0.999505, 1, 1, 0.983814, 0.999999, 1, 1, 1, 1, 1, 1, 1, 1, 1, 1, 1, 1, 1, 1, 1, 1, 1, 1
388, 1.66243e-10, 0.999992, 0.999562, 1, 0.983509, 1, 1, 0.103089, 1.6392e-09, 1, 0.00408824, 1, 1, 1, 1, 0.999562, 1, 1, 0.983511, 0.999998, 1, 1, 1, 1, 1, 1, 1, 1, 1, 1, 1, 1, 1, 1, 1, 1, 1, 1
389, 1.78225e-10, 0.999939, 0.999566, 1, 0.983303, 1, 1, 0.105622, 1.71564e-09, 1, 0.00413833, 1, 1, 1, 1, 0.999566, 1, 1, 0.983305, 0.999998, 1, 1, 1, 1, 1, 1, 1, 1, 1, 1, 1, 1, 1, 1, 1, 1, 1, 1
390, 1.90985e-10, 0.999828, 0.999628, 1, 0.983228, 1, 1, 0.108183, 1.79521e-09, 1, 0.00418867, 1, 1, 1, 1, 0.999628, 1, 1, 0.983228, 0.999999, 1, 1, 1, 1, 1, 1, 1, 1, 1, 1, 1, 1, 1, 1, 1, 1, 1, 1
391, 2.04531e-10, 0.999762, 0.999788, 1, 0.983061, 1, 1, 0.11077, 1.8778e-09, 1, 0.00423906, 1, 1, 1, 1, 0.999788, 1, 1, 0.983062, 1, 1, 1, 1, 1, 1, 1, 1, 1, 1, 1, 1, 1, 1, 1, 1, 1, 1, 1
392, 2.19015e-10, 0.999786, 0.999942, 1, 0.983171, 1, 1, 0.113383, 1.96383e-09, 1, 0.00428974, 1, 1, 1, 1, 0.999942, 1, 1, 0.983171, 1, 1, 1, 1, 1, 1, 1, 1, 1, 1, 1, 1, 1, 1, 1, 1, 1, 1, 1
393, 2.34575e-10, 0.999837, 0.999997, 1, 0.983909, 1, 1, 0.116021, 2.05374e-09, 1, 0.00434098, 1, 1, 1, 1, 0.999997, 1, 1, 0.983909, 1, 1, 1, 1, 1, 1, 1, 1, 1, 1, 1, 1, 1, 1, 1, 1, 1, 1, 1
394, 2.51025e-10, 0.999894, 1, 1, 0.984236, 1, 1, 0.118685, 2.14774e-09, 1, 0.00439283, 1, 1, 1, 1, 1, 1, 1, 0.984236, 1, 1, 1, 1, 1, 1, 1, 1, 1, 1, 1, 1, 1, 1, 1, 1, 1, 1, 1
395, 2.68232e-10, 0.999831, 1, 1, 0.983722, 1, 1, 0.121373, 2.24554e-09, 1, 0.00444512, 1, 1, 1, 1, 1, 1, 1, 0.983722, 1, 1, 1, 1, 1, 1, 1, 1, 1, 1, 1, 1, 1, 1, 1, 1, 1, 1, 1
396, 2.86349e-10, 0.999267, 1, 1, 0.983562, 1, 1, 0.124086, 2.34652e-09, 1, 0.0044976, 1, 1, 1, 1, 1, 1, 1, 0.983563, 1, 1, 1, 1, 1, 1, 1, 1, 1, 1, 1, 1, 1, 1, 1, 1, 1, 1, 1
397, 3.05431e-10, 0.998489, 1, 1, 0.98356, 1, 1, 0.126822, 2.45089e-09, 1, 0.00455031, 1, 1, 1, 1, 1, 1, 1, 0.983561, 1, 1, 1, 1, 1, 1, 1, 1, 1, 1, 1, 1, 1, 1, 1, 1, 1, 1, 1
398, 3.25704e-10, 0.998304, 0.999999, 1, 0.983097, 1, 1, 0.129581, 2.55953e-09, 1, 0.00460351, 1, 1, 1, 1, 0.999999, 1, 1, 0.983097, 1, 1, 1, 1, 1, 1, 1, 1, 1, 1, 1, 1, 1, 1, 1, 1, 1, 1, 1
399, 3.4736e-10, 0.998538, 0.999933, 1, 0.982732, 1, 1, 0.132363, 2.67288e-09, 1, 0.00465727, 1, 1, 1, 1, 0.999933, 1, 1, 0.982732, 1, 1, 1, 1, 1, 1, 1, 1, 1, 1, 1, 1, 1, 1, 1, 1, 1, 1, 1
400, 3.70276e-10, 0.998867, 0.999769, 1, 0.982351, 1, 1, 0.135168, 2.79078e-09, 1, 0.00471132, 1, 1, 1, 1, 0.999769, 1, 1, 0.982351, 1, 1, 1, 1, 1, 1, 1, 1, 1, 1, 1, 1, 1, 1, 1, 1, 1, 1, 1
