case index 25 = {
num freq, 1701
num column, 38
Waveln,  combin,  H2O,  umix,  O3,  trace,  N2,  H2Ocnt,  molec,  aercld,  HNO3,  aercld,  CO2,  CO,  CH4,  N2O,  O2,  NH3,  NO,  NO2,  SO2,  cloud,  F11,  F12,  CCl3F,  CF4,  F22,  F113,  F114,  R115,  ClONO2,  HNO4,  CHCl2F,  CCl4,  N2O5,  H2-H2,  H2-HE,  H2-CH4,  CH4-CH4
  [nm],  trans,  trans,  trans,  trans,  trans,  trans,  trans,  scat,  trans,  trans,  abtrns,  trans,  trans,  trans,  trans,  trans,  trans,  trans,  trans,  trans,  trans,  trans,  trans,  trans,  trans,  trans,  trans,  trans,  trans,  trans,  trans,  trans,  trans,  trans,  trans,  trans,  trans,  trans
300, 0.0033311, 1, 1, 0.0354935, 0.997399, 1, 1, 0.292493, 0.319744, 1, 0.75002, 1, 1, 1, 1, 1, 1, 1, 0.999269, 0.998128, 1, 1, 1, 1, 1, 1, 1, 1, 1, 1, 1, 1, 1, 1, 1, 1, 1, 1
301, 0.00516919, 1, 1, 0.0540377, 0.997644, 1, 1, 0.297664, 0.320464, 1, 0.750662, 1, 1, 1, 1, 1, 1, 1, 0.999251, 0.998391, 1, 1, 1, 1, 1, 1, 1, 1, 1, 1, 1, 1, 1, 1, 1, 1, 1, 1
302, 0.00764588, 1, 1, 0.0784077, 0.997756, 1, 1, 0.302831, 0.321246, 1, 0.751265, 1, 1, 1, 1, 1, 1, 1, 0.999198, 0.998557, 1, 1, 1, 1, 1, 1, 1, 1, 1, 1, 1, 1, 1, 1, 1, 1, 1, 1
303, 0.0107485, 1, 1, 0.108196, 0.997799, 1, 1, 0.307992, 0.322036, 1, 0.751864, 1, 1, 1, 1, 1, 1, 1, 0.999137, 0.998661, 1, 1, 1, 1, 1, 1, 1, 1, 1, 1, 1, 1, 1, 1, 1, 1, 1, 1
304, 0.0144875, 1, 1, 0.143127, 0.997883, 1, 1, 0.313145, 0.322827, 1, 0.752461, 1, 1, 1, 1, 1, 1, 1, 0.999103, 0.998778, 1, 1, 1, 1, 1, 1, 1, 1, 1, 1, 1, 1, 1, 1, 1, 1, 1, 1
305, 0.0189288, 1, 1, 0.183604, 0.997975, 1, 1, 0.318291, 0.323616, 1, 0.753053, 1, 1, 1, 1, 1, 1, 1, 0.999091, 0.998883, 1, 1, 1, 1, 1, 1, 1, 1, 1, 1, 1, 1, 1, 1, 1, 1, 1, 1
306, 0.0238672, 1, 1, 0.227375, 0.998017, 1, 1, 0.323428, 0.324401, 1, 0.753636, 1, 1, 1, 1, 1, 1, 1, 0.999076, 0.99894, 1, 1, 1, 1, 1, 1, 1, 1, 1, 1, 1, 1, 1, 1, 1, 1, 1, 1
307, 0.0294399, 1, 1, 0.27546, 0.998052, 1, 1, 0.328554, 0.325184, 1, 0.754215, 1, 1, 1, 1, 1, 1, 1, 0.999053, 0.998999, 1, 1, 1, 1, 1, 1, 1, 1, 1, 1, 1, 1, 1, 1, 1, 1, 1, 1
308, 0.0352713, 1, 1, 0.324327, 0.998132, 1, 1, 0.333669, 0.325969, 1, 0.754795, 1, 1, 1, 1, 1, 1, 1, 0.99902, 0.999112, 1, 1, 1, 1, 1, 1, 1, 1, 1, 1, 1, 1, 1, 1, 1, 1, 1, 1
309, 0.0413952, 1, 1, 0.374031, 0.998152, 1, 1, 0.338772, 0.326754, 1, 0.755372, 1, 1, 1, 1, 1, 1, 1, 0.998968, 0.999183, 1, 1, 1, 1, 1, 1, 1, 1, 1, 1, 1, 1, 1, 1, 1, 1, 1, 1
310, 0.0479455, 1, 1, 0.425897, 0.99819, 1, 1, 0.343861, 0.327534, 1, 0.755944, 1, 1, 1, 1, 1, 1, 1, 0.99892, 0.999268, 1, 1, 1, 1, 1, 1, 1, 1, 1, 1, 1, 1, 1, 1, 1, 1, 1, 1
311, 0.0542408, 1, 1, 0.473781, 0.998256, 1, 1, 0.348936, 0.328307, 1, 0.756509, 1, 1, 1, 1, 1, 1, 1, 0.998887, 0.999367, 1, 1, 1, 1, 1, 1, 1, 1, 1, 1, 1, 1, 1, 1, 1, 1, 1, 1
312, 0.0608187, 1, 1, 0.52238, 0.998319, 1, 1, 0.353997, 0.329078, 1, 0.757071, 1, 1, 1, 1, 1, 1, 1, 0.998854, 0.999464, 1, 1, 1, 1, 1, 1, 1, 1, 1, 1, 1, 1, 1, 1, 1, 1, 1, 1
313, 0.067344, 1, 1, 0.569101, 0.998367, 1, 1, 0.35904, 0.329851, 1, 0.757634, 1, 1, 1, 1, 1, 1, 1, 0.998835, 0.999533, 1, 1, 1, 1, 1, 1, 1, 1, 1, 1, 1, 1, 1, 1, 1, 1, 1, 1
314, 0.0735763, 1, 1, 0.611746, 0.998413, 1, 1, 0.364067, 0.330624, 1, 0.758195, 1, 1, 1, 1, 1, 1, 1, 0.998809, 0.999604, 1, 1, 1, 1, 1, 1, 1, 1, 1, 1, 1, 1, 1, 1, 1, 1, 1, 1
315, 0.0798325, 1, 1, 0.653318, 0.99843, 1, 1, 0.369076, 0.331392, 1, 0.758751, 1, 1, 1, 1, 1, 1, 1, 0.998765, 0.999665, 1, 1, 1, 1, 1, 1, 1, 1, 1, 1, 1, 1, 1, 1, 1, 1, 1, 1
316, 0.0855983, 1, 1, 0.689658, 0.998426, 1, 1, 0.374067, 0.332152, 1, 0.759301, 1, 1, 1, 1, 1, 1, 1, 0.998728, 0.999698, 1, 1, 1, 1, 1, 1, 1, 1, 1, 1, 1, 1, 1, 1, 1, 1, 1, 1
317, 0.0910494, 1, 1, 0.72236, 0.998411, 1, 1, 0.379038, 0.33291, 1, 0.759847, 1, 1, 1, 1, 1, 1, 1, 0.998669, 0.99974, 1, 1, 1, 1, 1, 1, 1, 1, 1, 1, 1, 1, 1, 1, 1, 1, 1, 1
318, 0.0969066, 1, 1, 0.757165, 0.998403, 1, 1, 0.383989, 0.33367, 1, 0.760393, 1, 1, 1, 1, 1, 1, 1, 0.998614, 0.999788, 1, 1, 1, 1, 1, 1, 1, 1, 1, 1, 1, 1, 1, 1, 1, 1, 1, 1
319, 0.102332, 1, 1, 0.787756, 0.998425, 1, 1, 0.388919, 0.33443, 1, 0.760939, 1, 1, 1, 1, 1, 1, 1, 0.998586, 0.999838, 1, 1, 1, 1, 1, 1, 1, 1, 1, 1, 1, 1, 1, 1, 1, 1, 1, 1
320, 0.107166, 1, 1, 0.81283, 0.998425, 1, 1, 0.393828, 0.335187, 1, 0.76148, 1, 1, 1, 1, 1, 1, 1, 0.998555, 0.999869, 1, 1, 1, 1, 1, 1, 1, 1, 1, 1, 1, 1, 1, 1, 1, 1, 1, 1
321, 0.112319, 1, 1, 0.839608, 0.998431, 1, 1, 0.398715, 0.335939, 1, 0.762015, 1, 1, 1, 1, 1, 1, 1, 0.998535, 0.999896, 1, 1, 1, 1, 1, 1, 1, 1, 1, 1, 1, 1, 1, 1, 1, 1, 1, 1
322, 0.115975, 1, 1, 0.85479, 0.998428, 1, 1, 0.403579, 0.336688, 1, 0.762545, 1, 1, 1, 1, 1, 1, 1, 0.998504, 0.999925, 1, 1, 1, 1, 1, 1, 1, 1, 1, 1, 1, 1, 1, 1, 1, 1, 1, 1
323, 0.120206, 1, 1, 0.873299, 0.998408, 1, 1, 0.40842, 0.337439, 1, 0.763076, 1, 1, 1, 1, 1, 1, 1, 0.998463, 0.999945, 1, 1, 1, 1, 1, 1, 1, 1, 1, 1, 1, 1, 1, 1, 1, 1, 1, 1
324, 0.125023, 1, 1, 0.895913, 0.998394, 1, 1, 0.413238, 0.338191, 1, 0.763607, 1, 1, 1, 1, 1, 1, 1, 0.998434, 0.99996, 1, 1, 1, 1, 1, 1, 1, 1, 1, 1, 1, 1, 1, 1, 1, 1, 1, 1
325, 0.127783, 1, 1, 0.903297, 0.998364, 1, 1, 0.41803, 0.338939, 1, 0.764133, 1, 1, 1, 1, 1, 1, 1, 0.998394, 0.99997, 1, 1, 1, 1, 1, 1, 1, 1, 1, 1, 1, 1, 1, 1, 1, 1, 1, 1
326, 0.131746, 1, 1, 0.918638, 0.998333, 1, 1, 0.422799, 0.33968, 1, 0.764654, 1, 1, 1, 1, 1, 1, 1, 0.998356, 0.999977, 1, 1, 1, 1, 1, 1, 1, 1, 1, 1, 1, 1, 1, 1, 1, 1, 1, 1
327, 0.135435, 1, 1, 0.932103, 0.998319, 1, 1, 0.427542, 0.340416, 1, 0.76517, 1, 1, 1, 1, 1, 1, 1, 0.998335, 0.999984, 1, 1, 1, 1, 1, 1, 1, 1, 1, 1, 1, 1, 1, 1, 1, 1, 1, 1
328, 0.137669, 1, 1, 0.93509, 0.998292, 1, 1, 0.432258, 0.341153, 1, 0.765684, 1, 1, 1, 1, 1, 1, 1, 0.998304, 0.999988, 1, 1, 1, 1, 1, 1, 1, 1, 1, 1, 1, 1, 1, 1, 1, 1, 1, 1
329, 0.141624, 1, 1, 0.949496, 0.998248, 1, 1, 0.436949, 0.341891, 1, 0.7662, 1, 1, 1, 1, 1, 1, 1, 0.998257, 0.999991, 1, 1, 1, 1, 1, 1, 1, 1, 1, 1, 1, 1, 1, 1, 1, 1, 1, 1
330, 0.144743, 1, 1, 0.958324, 0.998224, 1, 1, 0.441614, 0.342628, 1, 0.766714, 1, 1, 1, 1, 1, 1, 1, 0.99823, 0.999994, 1, 1, 1, 1, 1, 1, 1, 1, 1, 1, 1, 1, 1, 1, 1, 1, 1, 1
331, 0.146443, 1, 1, 0.957423, 0.998204, 1, 1, 0.446251, 0.34336, 1, 0.767221, 1, 1, 1, 1, 1, 1, 1, 0.998208, 0.999996, 1, 1, 1, 1, 1, 1, 1, 1, 1, 1, 1, 1, 1, 1, 1, 1, 1, 1
332, 0.149675, 1, 1, 0.96649, 0.998117, 1, 1, 0.450861, 0.344087, 1, 0.767724, 1, 1, 1, 1, 1, 1, 1, 0.99812, 0.999998, 1, 1, 1, 1, 1, 1, 1, 1, 1, 1, 1, 1, 1, 1, 1, 1, 1, 1
333, 0.1526, 1, 1, 0.973597, 0.998049, 1, 1, 0.455443, 0.344813, 1, 0.768225, 1, 1, 1, 1, 1, 1, 1, 0.998051, 0.999998, 1, 1, 1, 1, 1, 1, 1, 1, 1, 1, 1, 1, 1, 1, 1, 1, 1, 1
334, 0.15461, 1, 0.999963, 0.974574, 0.998068, 1, 1, 0.459998, 0.345546, 1, 0.768726, 1, 1, 1, 1, 0.999963, 1, 1, 0.99807, 0.999998, 1, 1, 1, 1, 1, 1, 1, 1, 1, 1, 1, 1, 1, 1, 1, 1, 1, 1
335, 0.157607, 1, 0.999847, 0.981678, 0.99806, 1, 1, 0.464523, 0.34631, 1, 0.769227, 1, 1, 1, 1, 0.999847, 1, 1, 0.998061, 0.999999, 1, 1, 1, 1, 1, 1, 1, 1, 1, 1, 1, 1, 1, 1, 1, 1, 1, 1
336, 0.160161, 1, 0.999716, 0.985954, 0.998032, 1, 1, 0.469021, 0.347128, 1, 0.769727, 1, 1, 1, 1, 0.999716, 1, 1, 0.998033, 0.999999, 1, 1, 1, 1, 1, 1, 1, 1, 1, 1, 1, 1, 1, 1, 1, 1, 1, 1
337, 0.16165, 1, 0.999642, 0.983407, 0.998017, 1, 1, 0.473489, 0.347978, 1, 0.770227, 1, 1, 1, 1, 0.999642, 1, 1, 0.998018, 1, 1, 1, 1, 1, 1, 1, 1, 1, 1, 1, 1, 1, 1, 1, 1, 1, 1, 1
338, 0.163914, 1, 0.999596, 0.985546, 0.997934, 1, 1, 0.477929, 0.348835, 1, 0.770727, 1, 1, 1, 1, 0.999596, 1, 1, 0.997934, 1, 1, 1, 1, 1, 1, 1, 1, 1, 1, 1, 1, 1, 1, 1, 1, 1, 1, 1
339, 0.166615, 1, 0.999513, 0.990383, 0.997827, 1, 1, 0.482339, 0.349704, 1, 0.771227, 1, 1, 1, 1, 0.999513, 1, 1, 0.997827, 1, 1, 1, 1, 1, 1, 1, 1, 1, 1, 1, 1, 1, 1, 1, 1, 1, 1, 1
340, 0.168676, 1, 0.999347, 0.991308, 0.997761, 1, 1, 0.48672, 0.350607, 1, 0.771725, 1, 1, 1, 1, 0.999347, 1, 1, 0.997761, 1, 1, 1, 1, 1, 1, 1, 1, 1, 1, 1, 1, 1, 1, 1, 1, 1, 1, 1
341, 0.170804, 1, 0.999078, 0.992527, 0.997734, 1, 1, 0.491071, 0.351546, 1, 0.772223, 1, 1, 1, 1, 0.999078, 1, 1, 0.997734, 1, 1, 1, 1, 1, 1, 1, 1, 1, 1, 1, 1, 1, 1, 1, 1, 1, 1, 1
342, 0.173205, 1, 0.998745, 0.995264, 0.997796, 1, 1, 0.495391, 0.352502, 1, 0.772721, 1, 1, 1, 1, 0.998745, 1, 1, 0.997796, 1, 1, 1, 1, 1, 1, 1, 1, 1, 1, 1, 1, 1, 1, 1, 1, 1, 1, 1
343, 0.175141, 1, 0.998495, 0.995263, 0.997855, 1, 1, 0.499682, 0.353462, 1, 0.773219, 1, 1, 1, 1, 0.998495, 1, 1, 0.997855, 0.999999, 1, 1, 1, 1, 1, 1, 1, 1, 1, 1, 1, 1, 1, 1, 1, 1, 1, 1
344, 0.17688, 1, 0.99852, 0.993953, 0.997807, 1, 1, 0.503943, 0.354424, 1, 0.773717, 1, 1, 1, 1, 0.99852, 1, 1, 0.997807, 0.999999, 1, 1, 1, 1, 1, 1, 1, 1, 1, 1, 1, 1, 1, 1, 1, 1, 1, 1
345, 0.179101, 1, 0.998865, 0.995095, 0.997709, 1, 1, 0.508174, 0.355381, 1, 0.774213, 1, 1, 1, 1, 0.998865, 1, 1, 0.997709, 1, 1, 1, 1, 1, 1, 1, 1, 1, 1, 1, 1, 1, 1, 1, 1, 1, 1, 1
346, 0.181522, 1, 0.9993, 0.997278, 0.997615, 1, 1, 0.512374, 0.356331, 1, 0.774703, 1, 1, 1, 1, 0.9993, 1, 1, 0.997615, 1, 1, 1, 1, 1, 1, 1, 1, 1, 1, 1, 1, 1, 1, 1, 1, 1, 1, 1
347, 0.183686, 1, 0.999592, 0.998203, 0.99751, 1, 1, 0.516544, 0.357276, 1, 0.775188, 1, 1, 1, 1, 0.999592, 1, 1, 0.99751, 1, 1, 1, 1, 1, 1, 1, 1, 1, 1, 1, 1, 1, 1, 1, 1, 1, 1, 1
348, 0.185729, 1, 0.99972, 0.998585, 0.997433, 1, 1, 0.520683, 0.358223, 1, 0.775674, 1, 1, 1, 1, 0.99972, 1, 1, 0.997433, 1, 1, 1, 1, 1, 1, 1, 1, 1, 1, 1, 1, 1, 1, 1, 1, 1, 1, 1
349, 0.187803, 1, 0.999748, 0.999094, 0.997499, 1, 1, 0.524791, 0.35917, 1, 0.776159, 1, 1, 1, 1, 0.999748, 1, 1, 0.997499, 1, 1, 1, 1, 1, 1, 1, 1, 1, 1, 1, 1, 1, 1, 1, 1, 1, 1, 1
350, 0.189807, 1, 0.99972, 0.999298, 0.997582, 1, 1, 0.528869, 0.360112, 1, 0.776641, 1, 1, 1, 1, 0.99972, 1, 1, 0.997582, 0.999999, 1, 1, 1, 1, 1, 1, 1, 1, 1, 1, 1, 1, 1, 1, 1, 1, 1, 1
351, 0.191684, 1, 0.999667, 0.999, 0.99756, 1, 1, 0.532915, 0.361046, 1, 0.777118, 1, 1, 1, 1, 0.999667, 1, 1, 0.99756, 0.999999, 1, 1, 1, 1, 1, 1, 1, 1, 1, 1, 1, 1, 1, 1, 1, 1, 1, 1
352, 0.193579, 1, 0.999587, 0.99882, 0.997576, 1, 1, 0.536932, 0.361976, 1, 0.777595, 1, 1, 1, 1, 0.999587, 1, 1, 0.997576, 1, 1, 1, 1, 1, 1, 1, 1, 1, 1, 1, 1, 1, 1, 1, 1, 1, 1, 1
353, 0.195564, 1, 0.99947, 0.999224, 0.997525, 1, 1, 0.540917, 0.362908, 1, 0.77807, 1, 1, 1, 1, 0.99947, 1, 1, 0.997525, 1, 1, 1, 1, 1, 1, 1, 1, 1, 1, 1, 1, 1, 1, 1, 1, 1, 1, 1
354, 0.197515, 1, 0.999304, 0.999657, 0.997332, 1, 1, 0.544871, 0.363841, 1, 0.778544, 1, 1, 1, 1, 0.999304, 1, 1, 0.997333, 0.999999, 1, 1, 1, 1, 1, 1, 1, 1, 1, 1, 1, 1, 1, 1, 1, 1, 1, 1
355, 0.199397, 1, 0.999037, 0.999739, 0.997279, 1, 1, 0.548795, 0.364769, 1, 0.779016, 1, 1, 1, 1, 0.999037, 1, 1, 0.997279, 1, 1, 1, 1, 1, 1, 1, 1, 1, 1, 1, 1, 1, 1, 1, 1, 1, 1, 1
356, 0.201214, 1, 0.998581, 0.99967, 0.997284, 1, 1, 0.552687, 0.365692, 1, 0.779483, 1, 1, 1, 1, 0.998581, 1, 1, 0.997284, 1, 1, 1, 1, 1, 1, 1, 1, 1, 1, 1, 1, 1, 1, 1, 1, 1, 1, 1
357, 0.202947, 1, 0.997852, 0.9996, 0.997191, 1, 1, 0.556549, 0.366612, 1, 0.779947, 1, 1, 1, 1, 0.997852, 1, 1, 0.997191, 1, 1, 1, 1, 1, 1, 1, 1, 1, 1, 1, 1, 1, 1, 1, 1, 1, 1, 1
358, 0.204665, 1, 0.99683, 0.999634, 0.997237, 1, 1, 0.56038, 0.367534, 1, 0.780411, 1, 1, 1, 1, 0.99683, 1, 1, 0.997238, 1, 1, 1, 1, 1, 1, 1, 1, 1, 1, 1, 1, 1, 1, 1, 1, 1, 1, 1
359, 0.206378, 1, 0.995709, 0.999688, 0.997379, 1, 1, 0.564181, 0.368456, 1, 0.780875, 1, 1, 1, 1, 0.995709, 1, 1, 0.997379, 1, 1, 1, 1, 1, 1, 1, 1, 1, 1, 1, 1, 1, 1, 1, 1, 1, 1, 1
360, 0.208111, 1, 0.994952, 0.999689, 0.997354, 1, 1, 0.567951, 0.369372, 1, 0.781335, 1, 1, 1, 1, 0.994952, 1, 1, 0.997354, 1, 1, 1, 1, 1, 1, 1, 1, 1, 1, 1, 1, 1, 1, 1, 1, 1, 1, 1
361, 0.210022, 1, 0.995144, 0.999728, 0.997241, 1, 1, 0.57169, 0.37028, 1, 0.781791, 1, 1, 1, 1, 0.995144, 1, 1, 0.997242, 1, 1, 1, 1, 1, 1, 1, 1, 1, 1, 1, 1, 1, 1, 1, 1, 1, 1, 1
362, 0.212179, 1, 0.996387, 0.999806, 0.997213, 1, 1, 0.575399, 0.371187, 1, 0.782245, 1, 1, 1, 1, 0.996387, 1, 1, 0.997213, 1, 1, 1, 1, 1, 1, 1, 1, 1, 1, 1, 1, 1, 1, 1, 1, 1, 1, 1
363, 0.214402, 1, 0.997918, 0.999872, 0.997223, 1, 1, 0.579076, 0.372095, 1, 0.782699, 1, 1, 1, 1, 0.997918, 1, 1, 0.997224, 0.999999, 1, 1, 1, 1, 1, 1, 1, 1, 1, 1, 1, 1, 1, 1, 1, 1, 1, 1
364, 0.216494, 1, 0.998985, 0.999895, 0.997127, 1, 1, 0.582724, 0.373003, 1, 0.783153, 1, 1, 1, 1, 0.998985, 1, 1, 0.997127, 1, 1, 1, 1, 1, 1, 1, 1, 1, 1, 1, 1, 1, 1, 1, 1, 1, 1, 1
365, 0.218459, 1, 0.999529, 0.999915, 0.996994, 1, 1, 0.586341, 0.373906, 1, 0.783603, 1, 1, 1, 1, 0.999529, 1, 1, 0.996995, 1, 1, 1, 1, 1, 1, 1, 1, 1, 1, 1, 1, 1, 1, 1, 1, 1, 1, 1
366, 0.220392, 1, 0.999775, 0.999966, 0.997017, 1, 1, 0.589928, 0.374802, 1, 0.784049, 1, 1, 1, 1, 0.999775, 1, 1, 0.997017, 1, 1, 1, 1, 1, 1, 1, 1, 1, 1, 1, 1, 1, 1, 1, 1, 1, 1, 1
367, 0.222293, 1, 0.99988, 0.999998, 0.997082, 1, 1, 0.593485, 0.375695, 1, 0.784493, 1, 1, 1, 1, 0.99988, 1, 1, 0.997082, 1, 1, 1, 1, 1, 1, 1, 1, 1, 1, 1, 1, 1, 1, 1, 1, 1, 1, 1
368, 0.224155, 1, 0.999915, 1, 0.997082, 1, 1, 0.597012, 0.376589, 1, 0.784936, 1, 1, 1, 1, 0.999915, 1, 1, 0.997082, 1, 1, 1, 1, 1, 1, 1, 1, 1, 1, 1, 1, 1, 1, 1, 1, 1, 1, 1
369, 0.226009, 1, 0.999921, 1, 0.9971, 1, 1, 0.600508, 0.377484, 1, 0.78538, 1, 1, 1, 1, 0.999921, 1, 1, 0.9971, 1, 1, 1, 1, 1, 1, 1, 1, 1, 1, 1, 1, 1, 1, 1, 1, 1, 1, 1
370, 0.227854, 1, 0.999921, 1, 0.997116, 1, 1, 0.603976, 0.378375, 1, 0.78582, 1, 1, 1, 1, 0.999921, 1, 1, 0.997117, 0.999999, 1, 1, 1, 1, 1, 1, 1, 1, 1, 1, 1, 1, 1, 1, 1, 1, 1, 1
371, 0.229667, 1, 0.999922, 1, 0.99703, 1, 1, 0.607413, 0.37926, 1, 0.786255, 1, 1, 1, 1, 0.999922, 1, 1, 0.997031, 1, 1, 1, 1, 1, 1, 1, 1, 1, 1, 1, 1, 1, 1, 1, 1, 1, 1, 1
372, 0.231465, 1, 0.99992, 1, 0.99691, 1, 1, 0.61082, 0.380143, 1, 0.78669, 1, 1, 1, 1, 0.99992, 1, 1, 0.99691, 1, 1, 1, 1, 1, 1, 1, 1, 1, 1, 1, 1, 1, 1, 1, 1, 1, 1, 1
373, 0.233293, 1, 0.999908, 1, 0.996952, 1, 1, 0.614199, 0.381027, 1, 0.787124, 1, 1, 1, 1, 0.999908, 1, 1, 0.996952, 1, 1, 1, 1, 1, 1, 1, 1, 1, 1, 1, 1, 1, 1, 1, 1, 1, 1, 1
374, 0.235119, 1, 0.999862, 1, 0.997034, 1, 1, 0.617548, 0.381912, 1, 0.787557, 1, 1, 1, 1, 0.999862, 1, 1, 0.997034, 1, 1, 1, 1, 1, 1, 1, 1, 1, 1, 1, 1, 1, 1, 1, 1, 1, 1, 1
375, 0.236874, 1, 0.99975, 1, 0.99692, 1, 1, 0.620868, 0.382793, 1, 0.787988, 1, 1, 1, 1, 0.99975, 1, 1, 0.996921, 0.999999, 1, 1, 1, 1, 1, 1, 1, 1, 1, 1, 1, 1, 1, 1, 1, 1, 1, 1
376, 0.238578, 1, 0.999494, 1, 0.996781, 1, 1, 0.624158, 0.383665, 1, 0.788415, 1, 1, 1, 1, 0.999494, 1, 1, 0.996781, 1, 1, 1, 1, 1, 1, 1, 1, 1, 1, 1, 1, 1, 1, 1, 1, 1, 1, 1
377, 0.240272, 1, 0.998991, 1, 0.99689, 1, 1, 0.62742, 0.384533, 1, 0.78884, 1, 1, 1, 1, 0.998991, 1, 1, 0.99689, 1, 1, 1, 1, 1, 1, 1, 1, 1, 1, 1, 1, 1, 1, 1, 1, 1, 1, 1
378, 0.241904, 1, 0.998235, 1, 0.997022, 1, 1, 0.630654, 0.385402, 1, 0.789264, 1, 1, 1, 1, 0.998235, 1, 1, 0.997022, 1, 1, 1, 1, 1, 1, 1, 1, 1, 1, 1, 1, 1, 1, 1, 1, 1, 1, 1
379, 0.243463, 1, 0.997463, 1, 0.996896, 1, 1, 0.633858, 0.386272, 1, 0.789689, 1, 1, 1, 1, 0.997463, 1, 1, 0.996897, 1, 1, 1, 1, 1, 1, 1, 1, 1, 1, 1, 1, 1, 1, 1, 1, 1, 1, 1
380, 0.245106, 1, 0.997106, 1, 0.996735, 1, 1, 0.637034, 0.38714, 1, 0.790111, 1, 1, 1, 1, 0.997106, 1, 1, 0.996735, 1, 1, 1, 1, 1, 1, 1, 1, 1, 1, 1, 1, 1, 1, 1, 1, 1, 1, 1
381, 0.246953, 1, 0.997419, 1, 0.996771, 1, 1, 0.640182, 0.388, 1, 0.790531, 1, 1, 1, 1, 0.997419, 1, 1, 0.996771, 1, 1, 1, 1, 1, 1, 1, 1, 1, 1, 1, 1, 1, 1, 1, 1, 1, 1, 1
382, 0.248925, 1, 0.998186, 1, 0.99689, 1, 1, 0.643302, 0.388857, 1, 0.790947, 1, 1, 1, 1, 0.998186, 1, 1, 0.99689, 1, 1, 1, 1, 1, 1, 1, 1, 1, 1, 1, 1, 1, 1, 1, 1, 1, 1, 1
383, 0.250867, 1, 0.998951, 1, 0.996902, 1, 1, 0.646394, 0.389713, 1, 0.791362, 1, 1, 1, 1, 0.998951, 1, 1, 0.996903, 0.999999, 1, 1, 1, 1, 1, 1, 1, 1, 1, 1, 1, 1, 1, 1, 1, 1, 1, 1
384, 0.252713, 1, 0.999462, 1, 0.996802, 1, 1, 0.649458, 0.390569, 1, 0.791778, 1, 1, 1, 1, 0.999462, 1, 1, 0.996802, 1, 1, 1, 1, 1, 1, 1, 1, 1, 1, 1, 1, 1, 1, 1, 1, 1, 1, 1
385, 0.254508, 1, 0.999734, 1, 0.996766, 1, 1, 0.652495, 0.39142, 1, 0.79219, 1, 1, 1, 1, 0.999734, 1, 1, 0.996767, 1, 1, 1, 1, 1, 1, 1, 1, 1, 1, 1, 1, 1, 1, 1, 1, 1, 1, 1
386, 0.25628, 1, 0.999862, 1, 0.996821, 1, 1, 0.655504, 0.392265, 1, 0.792598, 1, 1, 1, 1, 0.999862, 1, 1, 0.996821, 1, 1, 1, 1, 1, 1, 1, 1, 1, 1, 1, 1, 1, 1, 1, 1, 1, 1, 1
387, 0.258011, 1, 0.999911, 1, 0.996817, 1, 1, 0.658486, 0.393108, 1, 0.793005, 1, 1, 1, 1, 0.999911, 1, 1, 0.996817, 1, 1, 1, 1, 1, 1, 1, 1, 1, 1, 1, 1, 1, 1, 1, 1, 1, 1, 1
388, 0.259713, 0.999998, 0.999921, 1, 0.996757, 1, 1, 0.661441, 0.393953, 1, 0.793413, 1, 1, 1, 1, 0.999921, 1, 1, 0.996757, 1, 1, 1, 1, 1, 1, 1, 1, 1, 1, 1, 1, 1, 1, 1, 1, 1, 1, 1
389, 0.26141, 0.999989, 0.999922, 1, 0.996716, 1, 1, 0.664369, 0.394799, 1, 0.793819, 1, 1, 1, 1, 0.999922, 1, 1, 0.996716, 1, 1, 1, 1, 1, 1, 1, 1, 1, 1, 1, 1, 1, 1, 1, 1, 1, 1, 1
390, 0.263106, 0.999969, 0.999933, 1, 0.996701, 1, 1, 0.667271, 0.395642, 1, 0.794223, 1, 1, 1, 1, 0.999933, 1, 1, 0.996701, 1, 1, 1, 1, 1, 1, 1, 1, 1, 1, 1, 1, 1, 1, 1, 1, 1, 1, 1
391, 0.264794, 0.999957, 0.999962, 1, 0.996668, 1, 1, 0.670145, 0.39648, 1, 0.794623, 1, 1, 1, 1, 0.999962, 1, 1, 0.996668, 1, 1, 1, 1, 1, 1, 1, 1, 1, 1, 1, 1, 1, 1, 1, 1, 1, 1, 1
392, 0.266495, 0.999961, 0.99999, 1, 0.99669, 1, 1, 0.672994, 0.397315, 1, 0.795021, 1, 1, 1, 1, 0.99999, 1, 1, 0.99669, 1, 1, 1, 1, 1, 1, 1, 1, 1, 1, 1, 1, 1, 1, 1, 1, 1, 1, 1
393, 0.268221, 0.999971, 1, 1, 0.996836, 1, 1, 0.675817, 0.398152, 1, 0.795419, 1, 1, 1, 1, 1, 1, 1, 0.996836, 1, 1, 1, 1, 1, 1, 1, 1, 1, 1, 1, 1, 1, 1, 1, 1, 1, 1, 1
394, 0.269918, 0.999981, 1, 1, 0.9969, 1, 1, 0.678614, 0.39899, 1, 0.795816, 1, 1, 1, 1, 1, 1, 1, 0.9969, 1, 1, 1, 1, 1, 1, 1, 1, 1, 1, 1, 1, 1, 1, 1, 1, 1, 1, 1
395, 0.271557, 0.99997, 1, 1, 0.996799, 1, 1, 0.681385, 0.399826, 1, 0.796213, 1, 1, 1, 1, 1, 1, 1, 0.996799, 1, 1, 1, 1, 1, 1, 1, 1, 1, 1, 1, 1, 1, 1, 1, 1, 1, 1, 1
396, 0.27318, 0.999869, 1, 1, 0.996767, 1, 1, 0.68413, 0.400655, 1, 0.796606, 1, 1, 1, 1, 1, 1, 1, 0.996767, 1, 1, 1, 1, 1, 1, 1, 1, 1, 1, 1, 1, 1, 1, 1, 1, 1, 1, 1
397, 0.274789, 0.99973, 1, 1, 0.996767, 1, 1, 0.68685, 0.401476, 1, 0.796997, 1, 1, 1, 1, 1, 1, 1, 0.996767, 1, 1, 1, 1, 1, 1, 1, 1, 1, 1, 1, 1, 1, 1, 1, 1, 1, 1, 1
398, 0.276397, 0.999696, 1, 1, 0.996675, 1, 1, 0.689545, 0.402296, 1, 0.797387, 1, 1, 1, 1, 1, 1, 1, 0.996675, 1, 1, 1, 1, 1, 1, 1, 1, 1, 1, 1, 1, 1, 1, 1, 1, 1, 1, 1
399, 0.278021, 0.999739, 0.999988, 1, 0.996602, 1, 1, 0.692215, 0.403117, 1, 0.797777, 1, 1, 1, 1, 0.999988, 1, 1, 0.996602, 1, 1, 1, 1, 1, 1, 1, 1, 1, 1, 1, 1, 1, 1, 1, 1, 1, 1, 1
400, 0.279638, 0.999798, 0.999959, 1, 0.996528, 1, 1, 0.69486, 0.403937, 1, 0.798165, 1, 1, 1, 1, 0.999959, 1, 1, 0.996528, 1, 1, 1, 1, 1, 1, 1, 1, 1, 1, 1, 1, 1, 1, 1, 1, 1, 1, 1
401, 0.281286, 0.999873, 0.999934, 1, 0.996572, 1, 1, 0.697481, 0.404752, 1, 0.798549, 1, 1, 1, 1, 0.999934, 1, 1, 0.996572, 1, 1, 1, 1, 1, 1, 1, 1, 1, 1, 1, 1, 1, 1, 1, 1, 1, 1, 1
402, 0.28298, 0.999927, 0.999925, 1, 0.996804, 1, 1, 0.700076, 0.405566, 1, 0.798931, 1, 1, 1, 1, 0.999925, 1, 1, 0.996804, 1, 1, 1, 1, 1, 1, 1, 1, 1, 1, 1, 1, 1, 1, 1, 1, 1, 1, 1
403, 0.28463, 0.999957, 0.999923, 1, 0.996918, 1, 1, 0.702649, 0.406381, 1, 0.799314, 1, 1, 1, 1, 0.999923, 1, 1, 0.996918, 1, 1, 1, 1, 1, 1, 1, 1, 1, 1, 1, 1, 1, 1, 1, 1, 1, 1, 1
404, 0.286204, 0.999974, 0.999922, 1, 0.996795, 1, 1, 0.705197, 0.407196, 1, 0.799696, 1, 1, 1, 1, 0.999922, 1, 1, 0.996795, 1, 1, 1, 1, 1, 1, 1, 1, 1, 1, 1, 1, 1, 1, 1, 1, 1, 1, 1
405, 0.287783, 0.999984, 0.999921, 1, 0.996728, 1, 1, 0.707721, 0.408004, 1, 0.800074, 1, 1, 1, 1, 0.999921, 1, 1, 0.996728, 1, 1, 1, 1, 1, 1, 1, 1, 1, 1, 1, 1, 1, 1, 1, 1, 1, 1, 1
406, 0.289428, 0.999992, 0.999936, 0.999997, 0.996919, 1, 1, 0.710221, 0.408805, 1, 0.800449, 1, 1, 1, 1, 0.999936, 1, 1, 0.996919, 1, 1, 1, 1, 1, 1, 1, 1, 1, 1, 1, 1, 1, 1, 1, 1, 1, 1, 1
407, 0.291033, 0.999996, 0.99997, 0.999981, 0.996993, 1, 1, 0.712699, 0.409605, 1, 0.800824, 1, 1, 1, 1, 0.99997, 1, 1, 0.996993, 1, 1, 1, 1, 1, 1, 1, 1, 1, 1, 1, 1, 1, 1, 1, 1, 1, 1, 1
408, 0.292531, 0.999997, 0.999994, 0.999956, 0.99674, 1, 1, 0.715153, 0.410405, 1, 0.801197, 1, 1, 1, 1, 0.999994, 1, 1, 0.99674, 1, 1, 1, 1, 1, 1, 1, 1, 1, 1, 1, 1, 1, 1, 1, 1, 1, 1, 1
