case index 24 = {
num freq, 1701
num column, 38
Waveln,  combin,  H2O,  umix,  O3,  trace,  N2,  H2Ocnt,  molec,  aercld,  HNO3,  aercld,  CO2,  CO,  CH4,  N2O,  O2,  NH3,  NO,  NO2,  SO2,  cloud,  F11,  F12,  CCl3F,  CF4,  F22,  F113,  F114,  R115,  ClONO2,  HNO4,  CHCl2F,  CCl4,  N2O5,  H2-H2,  H2-HE,  H2-CH4,  CH4-CH4
  [nm],  trans,  trans,  trans,  trans,  trans,  trans,  trans,  scat,  trans,  trans,  abtrns,  trans,  trans,  trans,  trans,  trans,  trans,  trans,  trans,  trans,  trans,  trans,  trans,  trans,  trans,  trans,  trans,  trans,  trans,  trans,  trans,  trans,  trans,  trans,  trans,  trans,  trans,  trans
300, 0.00254611, 1, 1, 0.0303791, 0.997274, 1, 1, 0.275769, 0.302718, 1, 0.739736, 1, 1, 1, 1, 1, 1, 1, 0.999234, 0.998038, 1, 1, 1, 1, 1, 1, 1, 1, 1, 1, 1, 1, 1, 1, 1, 1, 1, 1
301, 0.00403056, 1, 1, 0.047141, 0.997531, 1, 1, 0.28088, 0.303433, 1, 0.740399, 1, 1, 1, 1, 1, 1, 1, 0.999216, 0.998313, 1, 1, 1, 1, 1, 1, 1, 1, 1, 1, 1, 1, 1, 1, 1, 1, 1, 1
302, 0.00607124, 1, 1, 0.0695947, 0.997649, 1, 1, 0.285991, 0.304208, 1, 0.741023, 1, 1, 1, 1, 1, 1, 1, 0.99916, 0.998487, 1, 1, 1, 1, 1, 1, 1, 1, 1, 1, 1, 1, 1, 1, 1, 1, 1, 1
303, 0.00866875, 1, 1, 0.0974587, 0.997695, 1, 1, 0.2911, 0.304993, 1, 0.741642, 1, 1, 1, 1, 1, 1, 1, 0.999096, 0.998597, 1, 1, 1, 1, 1, 1, 1, 1, 1, 1, 1, 1, 1, 1, 1, 1, 1, 1
304, 0.0118484, 1, 1, 0.130619, 0.997782, 1, 1, 0.296207, 0.305778, 1, 0.742259, 1, 1, 1, 1, 1, 1, 1, 0.99906, 0.99872, 1, 1, 1, 1, 1, 1, 1, 1, 1, 1, 1, 1, 1, 1, 1, 1, 1, 1
305, 0.0156746, 1, 1, 0.169513, 0.997879, 1, 1, 0.301309, 0.306562, 1, 0.742871, 1, 1, 1, 1, 1, 1, 1, 0.999047, 0.998829, 1, 1, 1, 1, 1, 1, 1, 1, 1, 1, 1, 1, 1, 1, 1, 1, 1, 1
306, 0.0199782, 1, 1, 0.212021, 0.997922, 1, 1, 0.306407, 0.30734, 1, 0.743474, 1, 1, 1, 1, 1, 1, 1, 0.999032, 0.998889, 1, 1, 1, 1, 1, 1, 1, 1, 1, 1, 1, 1, 1, 1, 1, 1, 1, 1
307, 0.0248886, 1, 1, 0.259198, 0.997959, 1, 1, 0.311498, 0.308118, 1, 0.744072, 1, 1, 1, 1, 1, 1, 1, 0.999008, 0.998951, 1, 1, 1, 1, 1, 1, 1, 1, 1, 1, 1, 1, 1, 1, 1, 1, 1, 1
308, 0.030069, 1, 1, 0.307496, 0.998043, 1, 1, 0.316581, 0.308898, 1, 0.744672, 1, 1, 1, 1, 1, 1, 1, 0.998973, 0.999069, 1, 1, 1, 1, 1, 1, 1, 1, 1, 1, 1, 1, 1, 1, 1, 1, 1, 1
309, 0.0355588, 1, 1, 0.357026, 0.998064, 1, 1, 0.321656, 0.309677, 1, 0.745269, 1, 1, 1, 1, 1, 1, 1, 0.998919, 0.999144, 1, 1, 1, 1, 1, 1, 1, 1, 1, 1, 1, 1, 1, 1, 1, 1, 1, 1
310, 0.0414705, 1, 1, 0.40902, 0.998103, 1, 1, 0.326722, 0.310452, 1, 0.745861, 1, 1, 1, 1, 1, 1, 1, 0.998869, 0.999232, 1, 1, 1, 1, 1, 1, 1, 1, 1, 1, 1, 1, 1, 1, 1, 1, 1, 1
311, 0.0471878, 1, 1, 0.457282, 0.998172, 1, 1, 0.331777, 0.31122, 1, 0.746445, 1, 1, 1, 1, 1, 1, 1, 0.998835, 0.999337, 1, 1, 1, 1, 1, 1, 1, 1, 1, 1, 1, 1, 1, 1, 1, 1, 1, 1
312, 0.0532008, 1, 1, 0.506548, 0.998239, 1, 1, 0.33682, 0.311986, 1, 0.747026, 1, 1, 1, 1, 1, 1, 1, 0.998799, 0.999439, 1, 1, 1, 1, 1, 1, 1, 1, 1, 1, 1, 1, 1, 1, 1, 1, 1, 1
313, 0.0591912, 1, 1, 0.554075, 0.998289, 1, 1, 0.34185, 0.312754, 1, 0.747608, 1, 1, 1, 1, 1, 1, 1, 0.998779, 0.999509, 1, 1, 1, 1, 1, 1, 1, 1, 1, 1, 1, 1, 1, 1, 1, 1, 1, 1
314, 0.0649423, 1, 1, 0.597647, 0.998337, 1, 1, 0.346867, 0.313522, 1, 0.748188, 1, 1, 1, 1, 1, 1, 1, 0.998752, 0.999585, 1, 1, 1, 1, 1, 1, 1, 1, 1, 1, 1, 1, 1, 1, 1, 1, 1, 1
315, 0.0707372, 1, 1, 0.640249, 0.998355, 1, 1, 0.35187, 0.314285, 1, 0.748763, 1, 1, 1, 1, 1, 1, 1, 0.998706, 0.999648, 1, 1, 1, 1, 1, 1, 1, 1, 1, 1, 1, 1, 1, 1, 1, 1, 1, 1
316, 0.0760964, 1, 1, 0.677592, 0.998351, 1, 1, 0.356857, 0.315041, 1, 0.749332, 1, 1, 1, 1, 1, 1, 1, 0.998668, 0.999684, 1, 1, 1, 1, 1, 1, 1, 1, 1, 1, 1, 1, 1, 1, 1, 1, 1, 1
317, 0.0811804, 1, 1, 0.711284, 0.998334, 1, 1, 0.361828, 0.315794, 1, 0.749897, 1, 1, 1, 1, 1, 1, 1, 0.998606, 0.999728, 1, 1, 1, 1, 1, 1, 1, 1, 1, 1, 1, 1, 1, 1, 1, 1, 1, 1
318, 0.086661, 1, 1, 0.747236, 0.998327, 1, 1, 0.366782, 0.316549, 1, 0.750461, 1, 1, 1, 1, 1, 1, 1, 0.998548, 0.999778, 1, 1, 1, 1, 1, 1, 1, 1, 1, 1, 1, 1, 1, 1, 1, 1, 1, 1
319, 0.0917486, 1, 1, 0.778882, 0.99835, 1, 1, 0.371719, 0.317305, 1, 0.751025, 1, 1, 1, 1, 1, 1, 1, 0.998519, 0.999831, 1, 1, 1, 1, 1, 1, 1, 1, 1, 1, 1, 1, 1, 1, 1, 1, 1, 1
320, 0.0962952, 1, 1, 0.804877, 0.99835, 1, 1, 0.376637, 0.318058, 1, 0.751585, 1, 1, 1, 1, 1, 1, 1, 0.998487, 0.999863, 1, 1, 1, 1, 1, 1, 1, 1, 1, 1, 1, 1, 1, 1, 1, 1, 1, 1
321, 0.101152, 1, 1, 0.83268, 0.998357, 1, 1, 0.381536, 0.318806, 1, 0.752139, 1, 1, 1, 1, 1, 1, 1, 0.998466, 0.999891, 1, 1, 1, 1, 1, 1, 1, 1, 1, 1, 1, 1, 1, 1, 1, 1, 1, 1
322, 0.104601, 1, 1, 0.848444, 0.998354, 1, 1, 0.386415, 0.319551, 1, 0.752687, 1, 1, 1, 1, 1, 1, 1, 0.998433, 0.999921, 1, 1, 1, 1, 1, 1, 1, 1, 1, 1, 1, 1, 1, 1, 1, 1, 1, 1
323, 0.108607, 1, 1, 0.867718, 0.998332, 1, 1, 0.391274, 0.320298, 1, 0.753237, 1, 1, 1, 1, 1, 1, 1, 0.998389, 0.999943, 1, 1, 1, 1, 1, 1, 1, 1, 1, 1, 1, 1, 1, 1, 1, 1, 1, 1
324, 0.113168, 1, 1, 0.891258, 0.998318, 1, 1, 0.396111, 0.321046, 1, 0.753785, 1, 1, 1, 1, 1, 1, 1, 0.998359, 0.999958, 1, 1, 1, 1, 1, 1, 1, 1, 1, 1, 1, 1, 1, 1, 1, 1, 1, 1
325, 0.115785, 1, 1, 0.898946, 0.998286, 1, 1, 0.400927, 0.321791, 1, 0.75433, 1, 1, 1, 1, 1, 1, 1, 0.998317, 0.999969, 1, 1, 1, 1, 1, 1, 1, 1, 1, 1, 1, 1, 1, 1, 1, 1, 1, 1
326, 0.119552, 1, 1, 0.914951, 0.998254, 1, 1, 0.40572, 0.322528, 1, 0.754869, 1, 1, 1, 1, 1, 1, 1, 0.998278, 0.999976, 1, 1, 1, 1, 1, 1, 1, 1, 1, 1, 1, 1, 1, 1, 1, 1, 1, 1
327, 0.123059, 1, 1, 0.928995, 0.99824, 1, 1, 0.410491, 0.32326, 1, 0.755402, 1, 1, 1, 1, 1, 1, 1, 0.998256, 0.999983, 1, 1, 1, 1, 1, 1, 1, 1, 1, 1, 1, 1, 1, 1, 1, 1, 1, 1
328, 0.125187, 1, 1, 0.932116, 0.998211, 1, 1, 0.415238, 0.323993, 1, 0.755935, 1, 1, 1, 1, 1, 1, 1, 0.998223, 0.999987, 1, 1, 1, 1, 1, 1, 1, 1, 1, 1, 1, 1, 1, 1, 1, 1, 1, 1
329, 0.128959, 1, 1, 0.947168, 0.998165, 1, 1, 0.419961, 0.324728, 1, 0.756469, 1, 1, 1, 1, 1, 1, 1, 0.998174, 0.99999, 1, 1, 1, 1, 1, 1, 1, 1, 1, 1, 1, 1, 1, 1, 1, 1, 1, 1
330, 0.131934, 1, 1, 0.956386, 0.998139, 1, 1, 0.42466, 0.325462, 1, 0.757, 1, 1, 1, 1, 1, 1, 1, 0.998146, 0.999993, 1, 1, 1, 1, 1, 1, 1, 1, 1, 1, 1, 1, 1, 1, 1, 1, 1, 1
331, 0.133558, 1, 1, 0.955445, 0.998119, 1, 1, 0.429334, 0.32619, 1, 0.757525, 1, 1, 1, 1, 1, 1, 1, 0.998123, 0.999996, 1, 1, 1, 1, 1, 1, 1, 1, 1, 1, 1, 1, 1, 1, 1, 1, 1, 1
332, 0.136649, 1, 1, 0.964927, 0.998028, 1, 1, 0.433983, 0.326914, 1, 0.758045, 1, 1, 1, 1, 1, 1, 1, 0.99803, 0.999997, 1, 1, 1, 1, 1, 1, 1, 1, 1, 1, 1, 1, 1, 1, 1, 1, 1, 1
333, 0.139447, 1, 1, 0.97236, 0.997956, 1, 1, 0.438606, 0.327637, 1, 0.758564, 1, 1, 1, 1, 1, 1, 1, 0.997959, 0.999998, 1, 1, 1, 1, 1, 1, 1, 1, 1, 1, 1, 1, 1, 1, 1, 1, 1, 1
334, 0.141373, 1, 0.999961, 0.973382, 0.997976, 1, 1, 0.443203, 0.328367, 1, 0.759082, 1, 1, 1, 1, 0.999961, 1, 1, 0.997978, 0.999998, 1, 1, 1, 1, 1, 1, 1, 1, 1, 1, 1, 1, 1, 1, 1, 1, 1, 1
335, 0.144246, 1, 0.99984, 0.980816, 0.997968, 1, 1, 0.447773, 0.329128, 1, 0.759601, 1, 1, 1, 1, 0.99984, 1, 1, 0.997969, 0.999999, 1, 1, 1, 1, 1, 1, 1, 1, 1, 1, 1, 1, 1, 1, 1, 1, 1, 1
336, 0.146696, 1, 0.999702, 0.985291, 0.997939, 1, 1, 0.452317, 0.329942, 1, 0.760118, 1, 1, 1, 1, 0.999702, 1, 1, 0.997939, 0.999999, 1, 1, 1, 1, 1, 1, 1, 1, 1, 1, 1, 1, 1, 1, 1, 1, 1, 1
337, 0.148125, 1, 0.999625, 0.982624, 0.997923, 1, 1, 0.456834, 0.330789, 1, 0.760635, 1, 1, 1, 1, 0.999625, 1, 1, 0.997923, 1, 1, 1, 1, 1, 1, 1, 1, 1, 1, 1, 1, 1, 1, 1, 1, 1, 1, 1
338, 0.1503, 1, 0.999577, 0.984864, 0.997835, 1, 1, 0.461324, 0.331643, 1, 0.761153, 1, 1, 1, 1, 0.999577, 1, 1, 0.997835, 1, 1, 1, 1, 1, 1, 1, 1, 1, 1, 1, 1, 1, 1, 1, 1, 1, 1, 1
339, 0.152897, 1, 0.99949, 0.989927, 0.997723, 1, 1, 0.465785, 0.332509, 1, 0.76167, 1, 1, 1, 1, 0.99949, 1, 1, 0.997723, 1, 1, 1, 1, 1, 1, 1, 1, 1, 1, 1, 1, 1, 1, 1, 1, 1, 1, 1
340, 0.154878, 1, 0.999316, 0.990896, 0.997654, 1, 1, 0.470219, 0.333408, 1, 0.762186, 1, 1, 1, 1, 0.999316, 1, 1, 0.997654, 1, 1, 1, 1, 1, 1, 1, 1, 1, 1, 1, 1, 1, 1, 1, 1, 1, 1, 1
341, 0.156927, 1, 0.999034, 0.992173, 0.997627, 1, 1, 0.474625, 0.334345, 1, 0.762702, 1, 1, 1, 1, 0.999034, 1, 1, 0.997627, 1, 1, 1, 1, 1, 1, 1, 1, 1, 1, 1, 1, 1, 1, 1, 1, 1, 1, 1
342, 0.159239, 1, 0.998685, 0.99504, 0.997691, 1, 1, 0.479002, 0.335298, 1, 0.763217, 1, 1, 1, 1, 0.998685, 1, 1, 0.997691, 1, 1, 1, 1, 1, 1, 1, 1, 1, 1, 1, 1, 1, 1, 1, 1, 1, 1, 1
343, 0.161105, 1, 0.998423, 0.995039, 0.997753, 1, 1, 0.483351, 0.336254, 1, 0.763733, 1, 1, 1, 1, 0.998423, 1, 1, 0.997753, 0.999999, 1, 1, 1, 1, 1, 1, 1, 1, 1, 1, 1, 1, 1, 1, 1, 1, 1, 1
344, 0.162781, 1, 0.998449, 0.993665, 0.997703, 1, 1, 0.48767, 0.337214, 1, 0.764249, 1, 1, 1, 1, 0.998449, 1, 1, 0.997703, 0.999999, 1, 1, 1, 1, 1, 1, 1, 1, 1, 1, 1, 1, 1, 1, 1, 1, 1, 1
345, 0.164925, 1, 0.99881, 0.994863, 0.997601, 1, 1, 0.491962, 0.338169, 1, 0.764761, 1, 1, 1, 1, 0.99881, 1, 1, 0.997601, 1, 1, 1, 1, 1, 1, 1, 1, 1, 1, 1, 1, 1, 1, 1, 1, 1, 1, 1
346, 0.167261, 1, 0.999267, 0.997149, 0.997501, 1, 1, 0.496223, 0.339116, 1, 0.765268, 1, 1, 1, 1, 0.999267, 1, 1, 0.997501, 1, 1, 1, 1, 1, 1, 1, 1, 1, 1, 1, 1, 1, 1, 1, 1, 1, 1, 1
347, 0.169351, 1, 0.999572, 0.998117, 0.997392, 1, 1, 0.500456, 0.340059, 1, 0.765771, 1, 1, 1, 1, 0.999572, 1, 1, 0.997392, 1, 1, 1, 1, 1, 1, 1, 1, 1, 1, 1, 1, 1, 1, 1, 1, 1, 1, 1
348, 0.171326, 1, 0.999707, 0.998517, 0.997311, 1, 1, 0.504659, 0.341002, 1, 0.766274, 1, 1, 1, 1, 0.999707, 1, 1, 0.997311, 1, 1, 1, 1, 1, 1, 1, 1, 1, 1, 1, 1, 1, 1, 1, 1, 1, 1, 1
349, 0.17333, 1, 0.999735, 0.99905, 0.99738, 1, 1, 0.508832, 0.341947, 1, 0.766776, 1, 1, 1, 1, 0.999735, 1, 1, 0.99738, 1, 1, 1, 1, 1, 1, 1, 1, 1, 1, 1, 1, 1, 1, 1, 1, 1, 1, 1
350, 0.175269, 1, 0.999706, 0.999265, 0.997467, 1, 1, 0.512976, 0.342888, 1, 0.767275, 1, 1, 1, 1, 0.999706, 1, 1, 0.997467, 0.999999, 1, 1, 1, 1, 1, 1, 1, 1, 1, 1, 1, 1, 1, 1, 1, 1, 1, 1
351, 0.177085, 1, 0.999651, 0.998952, 0.997444, 1, 1, 0.517089, 0.343819, 1, 0.767769, 1, 1, 1, 1, 0.999651, 1, 1, 0.997444, 0.999999, 1, 1, 1, 1, 1, 1, 1, 1, 1, 1, 1, 1, 1, 1, 1, 1, 1, 1
352, 0.178921, 1, 0.999568, 0.998764, 0.99746, 1, 1, 0.521174, 0.344748, 1, 0.768262, 1, 1, 1, 1, 0.999568, 1, 1, 0.997461, 1, 1, 1, 1, 1, 1, 1, 1, 1, 1, 1, 1, 1, 1, 1, 1, 1, 1, 1
353, 0.180844, 1, 0.999445, 0.999186, 0.997407, 1, 1, 0.525228, 0.345678, 1, 0.768755, 1, 1, 1, 1, 0.999445, 1, 1, 0.997408, 1, 1, 1, 1, 1, 1, 1, 1, 1, 1, 1, 1, 1, 1, 1, 1, 1, 1, 1
354, 0.182734, 1, 0.999271, 0.999641, 0.997205, 1, 1, 0.529253, 0.346609, 1, 0.769246, 1, 1, 1, 1, 0.999271, 1, 1, 0.997206, 0.999999, 1, 1, 1, 1, 1, 1, 1, 1, 1, 1, 1, 1, 1, 1, 1, 1, 1, 1
355, 0.18456, 1, 0.998991, 0.999727, 0.997149, 1, 1, 0.533247, 0.347536, 1, 0.769735, 1, 1, 1, 1, 0.998991, 1, 1, 0.997149, 1, 1, 1, 1, 1, 1, 1, 1, 1, 1, 1, 1, 1, 1, 1, 1, 1, 1, 1
356, 0.186322, 1, 0.998513, 0.999655, 0.997154, 1, 1, 0.537211, 0.348457, 1, 0.770217, 1, 1, 1, 1, 0.998513, 1, 1, 0.997155, 1, 1, 1, 1, 1, 1, 1, 1, 1, 1, 1, 1, 1, 1, 1, 1, 1, 1, 1
357, 0.188005, 1, 0.997748, 0.999582, 0.997057, 1, 1, 0.541145, 0.349376, 1, 0.770698, 1, 1, 1, 1, 0.997748, 1, 1, 0.997057, 1, 1, 1, 1, 1, 1, 1, 1, 1, 1, 1, 1, 1, 1, 1, 1, 1, 1, 1
358, 0.189673, 1, 0.996678, 0.999617, 0.997105, 1, 1, 0.54505, 0.350297, 1, 0.771179, 1, 1, 1, 1, 0.996678, 1, 1, 0.997106, 1, 1, 1, 1, 1, 1, 1, 1, 1, 1, 1, 1, 1, 1, 1, 1, 1, 1, 1
359, 0.191336, 1, 0.995504, 0.999673, 0.997254, 1, 1, 0.548924, 0.351218, 1, 0.771659, 1, 1, 1, 1, 0.995504, 1, 1, 0.997255, 1, 1, 1, 1, 1, 1, 1, 1, 1, 1, 1, 1, 1, 1, 1, 1, 1, 1, 1
360, 0.19302, 1, 0.994711, 0.999675, 0.997228, 1, 1, 0.552768, 0.352133, 1, 0.772135, 1, 1, 1, 1, 0.994711, 1, 1, 0.997229, 1, 1, 1, 1, 1, 1, 1, 1, 1, 1, 1, 1, 1, 1, 1, 1, 1, 1, 1
361, 0.194879, 1, 0.994912, 0.999714, 0.99711, 1, 1, 0.556582, 0.353041, 1, 0.772608, 1, 1, 1, 1, 0.994912, 1, 1, 0.99711, 1, 1, 1, 1, 1, 1, 1, 1, 1, 1, 1, 1, 1, 1, 1, 1, 1, 1, 1
362, 0.196976, 1, 0.996214, 0.999797, 0.997081, 1, 1, 0.560366, 0.353947, 1, 0.773078, 1, 1, 1, 1, 0.996214, 1, 1, 0.997082, 1, 1, 1, 1, 1, 1, 1, 1, 1, 1, 1, 1, 1, 1, 1, 1, 1, 1, 1
363, 0.19914, 1, 0.997818, 0.999865, 0.997091, 1, 1, 0.56412, 0.354854, 1, 0.773549, 1, 1, 1, 1, 0.997818, 1, 1, 0.997091, 0.999999, 1, 1, 1, 1, 1, 1, 1, 1, 1, 1, 1, 1, 1, 1, 1, 1, 1, 1
364, 0.201176, 1, 0.998937, 0.99989, 0.99699, 1, 1, 0.567844, 0.355762, 1, 0.774018, 1, 1, 1, 1, 0.998937, 1, 1, 0.99699, 1, 1, 1, 1, 1, 1, 1, 1, 1, 1, 1, 1, 1, 1, 1, 1, 1, 1, 1
365, 0.20309, 1, 0.999507, 0.999911, 0.996852, 1, 1, 0.571538, 0.356665, 1, 0.774485, 1, 1, 1, 1, 0.999507, 1, 1, 0.996852, 1, 1, 1, 1, 1, 1, 1, 1, 1, 1, 1, 1, 1, 1, 1, 1, 1, 1, 1
366, 0.204974, 1, 0.999765, 0.999965, 0.996875, 1, 1, 0.575202, 0.35756, 1, 0.774947, 1, 1, 1, 1, 0.999765, 1, 1, 0.996876, 1, 1, 1, 1, 1, 1, 1, 1, 1, 1, 1, 1, 1, 1, 1, 1, 1, 1, 1
367, 0.206827, 1, 0.999874, 0.999998, 0.996943, 1, 1, 0.578837, 0.358453, 1, 0.775407, 1, 1, 1, 1, 0.999874, 1, 1, 0.996943, 1, 1, 1, 1, 1, 1, 1, 1, 1, 1, 1, 1, 1, 1, 1, 1, 1, 1, 1
368, 0.208643, 1, 0.999911, 1, 0.996943, 1, 1, 0.582442, 0.359347, 1, 0.775866, 1, 1, 1, 1, 0.999911, 1, 1, 0.996944, 1, 1, 1, 1, 1, 1, 1, 1, 1, 1, 1, 1, 1, 1, 1, 1, 1, 1, 1
369, 0.210452, 1, 0.999918, 1, 0.996962, 1, 1, 0.586017, 0.360242, 1, 0.776325, 1, 1, 1, 1, 0.999918, 1, 1, 0.996962, 1, 1, 1, 1, 1, 1, 1, 1, 1, 1, 1, 1, 1, 1, 1, 1, 1, 1, 1
370, 0.212252, 1, 0.999918, 1, 0.996979, 1, 1, 0.589563, 0.361133, 1, 0.776781, 1, 1, 1, 1, 0.999918, 1, 1, 0.99698, 0.999999, 1, 1, 1, 1, 1, 1, 1, 1, 1, 1, 1, 1, 1, 1, 1, 1, 1, 1
371, 0.214022, 1, 0.999918, 1, 0.996889, 1, 1, 0.59308, 0.362018, 1, 0.777233, 1, 1, 1, 1, 0.999918, 1, 1, 0.99689, 1, 1, 1, 1, 1, 1, 1, 1, 1, 1, 1, 1, 1, 1, 1, 1, 1, 1, 1
372, 0.215778, 1, 0.999917, 1, 0.996762, 1, 1, 0.596567, 0.362901, 1, 0.777682, 1, 1, 1, 1, 0.999917, 1, 1, 0.996763, 1, 1, 1, 1, 1, 1, 1, 1, 1, 1, 1, 1, 1, 1, 1, 1, 1, 1, 1
373, 0.217565, 1, 0.999903, 1, 0.996806, 1, 1, 0.600025, 0.363786, 1, 0.778132, 1, 1, 1, 1, 0.999903, 1, 1, 0.996806, 1, 1, 1, 1, 1, 1, 1, 1, 1, 1, 1, 1, 1, 1, 1, 1, 1, 1, 1
374, 0.219349, 1, 0.999855, 1, 0.996892, 1, 1, 0.603454, 0.364672, 1, 0.778581, 1, 1, 1, 1, 0.999855, 1, 1, 0.996893, 1, 1, 1, 1, 1, 1, 1, 1, 1, 1, 1, 1, 1, 1, 1, 1, 1, 1, 1
375, 0.221065, 1, 0.999738, 1, 0.996774, 1, 1, 0.606854, 0.365554, 1, 0.779028, 1, 1, 1, 1, 0.999738, 1, 1, 0.996775, 0.999999, 1, 1, 1, 1, 1, 1, 1, 1, 1, 1, 1, 1, 1, 1, 1, 1, 1, 1
376, 0.222732, 1, 0.99947, 1, 0.996628, 1, 1, 0.610224, 0.366427, 1, 0.77947, 1, 1, 1, 1, 0.99947, 1, 1, 0.996628, 1, 1, 1, 1, 1, 1, 1, 1, 1, 1, 1, 1, 1, 1, 1, 1, 1, 1, 1
377, 0.22439, 1, 0.998942, 1, 0.996742, 1, 1, 0.613567, 0.367295, 1, 0.77991, 1, 1, 1, 1, 0.998942, 1, 1, 0.996742, 1, 1, 1, 1, 1, 1, 1, 1, 1, 1, 1, 1, 1, 1, 1, 1, 1, 1, 1
378, 0.225987, 1, 0.99815, 1, 0.996881, 1, 1, 0.616881, 0.368165, 1, 0.78035, 1, 1, 1, 1, 0.99815, 1, 1, 0.996881, 1, 1, 1, 1, 1, 1, 1, 1, 1, 1, 1, 1, 1, 1, 1, 1, 1, 1, 1
379, 0.227514, 1, 0.997342, 1, 0.996749, 1, 1, 0.620166, 0.369036, 1, 0.780789, 1, 1, 1, 1, 0.997342, 1, 1, 0.996749, 1, 1, 1, 1, 1, 1, 1, 1, 1, 1, 1, 1, 1, 1, 1, 1, 1, 1, 1
380, 0.229123, 1, 0.996967, 1, 0.99658, 1, 1, 0.623422, 0.369905, 1, 0.781228, 1, 1, 1, 1, 0.996967, 1, 1, 0.99658, 1, 1, 1, 1, 1, 1, 1, 1, 1, 1, 1, 1, 1, 1, 1, 1, 1, 1, 1
381, 0.230932, 1, 0.997296, 1, 0.996617, 1, 1, 0.626651, 0.370767, 1, 0.781661, 1, 1, 1, 1, 0.997296, 1, 1, 0.996618, 1, 1, 1, 1, 1, 1, 1, 1, 1, 1, 1, 1, 1, 1, 1, 1, 1, 1, 1
382, 0.232865, 1, 0.998099, 1, 0.996742, 1, 1, 0.629851, 0.371624, 1, 0.782093, 1, 1, 1, 1, 0.998099, 1, 1, 0.996742, 1, 1, 1, 1, 1, 1, 1, 1, 1, 1, 1, 1, 1, 1, 1, 1, 1, 1, 1
383, 0.234769, 1, 0.998901, 1, 0.996756, 1, 1, 0.633024, 0.372482, 1, 0.782524, 1, 1, 1, 1, 0.998901, 1, 1, 0.996756, 0.999999, 1, 1, 1, 1, 1, 1, 1, 1, 1, 1, 1, 1, 1, 1, 1, 1, 1, 1
384, 0.23658, 1, 0.999436, 1, 0.99665, 1, 1, 0.63617, 0.37334, 1, 0.782955, 1, 1, 1, 1, 0.999436, 1, 1, 0.99665, 1, 1, 1, 1, 1, 1, 1, 1, 1, 1, 1, 1, 1, 1, 1, 1, 1, 1, 1
385, 0.238341, 1, 0.999721, 1, 0.996613, 1, 1, 0.639287, 0.374192, 1, 0.783381, 1, 1, 1, 1, 0.999721, 1, 1, 0.996613, 1, 1, 1, 1, 1, 1, 1, 1, 1, 1, 1, 1, 1, 1, 1, 1, 1, 1, 1
386, 0.240081, 1, 0.999855, 1, 0.99667, 1, 1, 0.642377, 0.375038, 1, 0.783804, 1, 1, 1, 1, 0.999855, 1, 1, 0.99667, 1, 1, 1, 1, 1, 1, 1, 1, 1, 1, 1, 1, 1, 1, 1, 1, 1, 1, 1
387, 0.24178, 1, 0.999907, 1, 0.996666, 1, 1, 0.645439, 0.375884, 1, 0.784226, 1, 1, 1, 1, 0.999907, 1, 1, 0.996666, 1, 1, 1, 1, 1, 1, 1, 1, 1, 1, 1, 1, 1, 1, 1, 1, 1, 1, 1
388, 0.243451, 0.999998, 0.999917, 1, 0.996603, 1, 1, 0.648475, 0.376731, 1, 0.784648, 1, 1, 1, 1, 0.999917, 1, 1, 0.996603, 1, 1, 1, 1, 1, 1, 1, 1, 1, 1, 1, 1, 1, 1, 1, 1, 1, 1, 1
389, 0.245119, 0.999989, 0.999918, 1, 0.99656, 1, 1, 0.651483, 0.377578, 1, 0.78507, 1, 1, 1, 1, 0.999918, 1, 1, 0.99656, 1, 1, 1, 1, 1, 1, 1, 1, 1, 1, 1, 1, 1, 1, 1, 1, 1, 1, 1
390, 0.246785, 0.999968, 0.99993, 1, 0.996544, 1, 1, 0.654465, 0.378423, 1, 0.785489, 1, 1, 1, 1, 0.99993, 1, 1, 0.996544, 1, 1, 1, 1, 1, 1, 1, 1, 1, 1, 1, 1, 1, 1, 1, 1, 1, 1, 1
391, 0.248445, 0.999955, 0.99996, 1, 0.99651, 1, 1, 0.65742, 0.379263, 1, 0.785903, 1, 1, 1, 1, 0.99996, 1, 1, 0.99651, 1, 1, 1, 1, 1, 1, 1, 1, 1, 1, 1, 1, 1, 1, 1, 1, 1, 1, 1
392, 0.250118, 0.99996, 0.999989, 1, 0.996532, 1, 1, 0.660349, 0.3801, 1, 0.786316, 1, 1, 1, 1, 0.999989, 1, 1, 0.996532, 1, 1, 1, 1, 1, 1, 1, 1, 1, 1, 1, 1, 1, 1, 1, 1, 1, 1, 1
393, 0.251815, 0.99997, 1, 1, 0.996686, 1, 1, 0.663252, 0.380939, 1, 0.786727, 1, 1, 1, 1, 1, 1, 1, 0.996686, 1, 1, 1, 1, 1, 1, 1, 1, 1, 1, 1, 1, 1, 1, 1, 1, 1, 1, 1
394, 0.253485, 0.99998, 1, 1, 0.996754, 1, 1, 0.666128, 0.38178, 1, 0.78714, 1, 1, 1, 1, 1, 1, 1, 0.996754, 1, 1, 1, 1, 1, 1, 1, 1, 1, 1, 1, 1, 1, 1, 1, 1, 1, 1, 1
395, 0.255098, 0.999969, 1, 1, 0.996647, 1, 1, 0.668978, 0.382618, 1, 0.787551, 1, 1, 1, 1, 1, 1, 1, 0.996647, 1, 1, 1, 1, 1, 1, 1, 1, 1, 1, 1, 1, 1, 1, 1, 1, 1, 1, 1
396, 0.256696, 0.999863, 1, 1, 0.996613, 1, 1, 0.671803, 0.383449, 1, 0.787959, 1, 1, 1, 1, 1, 1, 1, 0.996613, 1, 1, 1, 1, 1, 1, 1, 1, 1, 1, 1, 1, 1, 1, 1, 1, 1, 1, 1
397, 0.258281, 0.999717, 1, 1, 0.996613, 1, 1, 0.674602, 0.384273, 1, 0.788364, 1, 1, 1, 1, 1, 1, 1, 0.996613, 1, 1, 1, 1, 1, 1, 1, 1, 1, 1, 1, 1, 1, 1, 1, 1, 1, 1, 1
398, 0.259865, 0.999682, 1, 1, 0.996517, 1, 1, 0.677376, 0.385096, 1, 0.788769, 1, 1, 1, 1, 1, 1, 1, 0.996517, 1, 1, 1, 1, 1, 1, 1, 1, 1, 1, 1, 1, 1, 1, 1, 1, 1, 1, 1
399, 0.261466, 0.999726, 0.999987, 1, 0.996441, 1, 1, 0.680125, 0.385919, 1, 0.789173, 1, 1, 1, 1, 0.999987, 1, 1, 0.996441, 1, 1, 1, 1, 1, 1, 1, 1, 1, 1, 1, 1, 1, 1, 1, 1, 1, 1, 1
400, 0.263059, 0.999788, 0.999957, 1, 0.996362, 1, 1, 0.682849, 0.386741, 1, 0.789574, 1, 1, 1, 1, 0.999957, 1, 1, 0.996362, 1, 1, 1, 1, 1, 1, 1, 1, 1, 1, 1, 1, 1, 1, 1, 1, 1, 1, 1
401, 0.264684, 0.999867, 0.999931, 1, 0.996409, 1, 1, 0.685548, 0.38756, 1, 0.789973, 1, 1, 1, 1, 0.999931, 1, 1, 0.996409, 1, 1, 1, 1, 1, 1, 1, 1, 1, 1, 1, 1, 1, 1, 1, 1, 1, 1, 1
402, 0.266355, 0.999923, 0.999922, 1, 0.996651, 1, 1, 0.688221, 0.388376, 1, 0.79037, 1, 1, 1, 1, 0.999922, 1, 1, 0.996651, 1, 1, 1, 1, 1, 1, 1, 1, 1, 1, 1, 1, 1, 1, 1, 1, 1, 1, 1
403, 0.267983, 0.999955, 0.999919, 1, 0.996771, 1, 1, 0.690871, 0.389195, 1, 0.790766, 1, 1, 1, 1, 0.999919, 1, 1, 0.996771, 1, 1, 1, 1, 1, 1, 1, 1, 1, 1, 1, 1, 1, 1, 1, 1, 1, 1, 1
404, 0.269536, 0.999972, 0.999918, 1, 0.996642, 1, 1, 0.693497, 0.390012, 1, 0.791162, 1, 1, 1, 1, 0.999918, 1, 1, 0.996642, 1, 1, 1, 1, 1, 1, 1, 1, 1, 1, 1, 1, 1, 1, 1, 1, 1, 1, 1
405, 0.271094, 0.999983, 0.999918, 1, 0.996573, 1, 1, 0.696098, 0.390823, 1, 0.791554, 1, 1, 1, 1, 0.999918, 1, 1, 0.996573, 1, 1, 1, 1, 1, 1, 1, 1, 1, 1, 1, 1, 1, 1, 1, 1, 1, 1, 1
406, 0.272718, 0.999992, 0.999933, 0.999996, 0.996773, 1, 1, 0.698676, 0.391628, 1, 0.791943, 1, 1, 1, 1, 0.999933, 1, 1, 0.996773, 1, 1, 1, 1, 1, 1, 1, 1, 1, 1, 1, 1, 1, 1, 1, 1, 1, 1, 1
407, 0.274303, 0.999996, 0.999968, 0.99998, 0.99685, 1, 1, 0.70123, 0.39243, 1, 0.792331, 1, 1, 1, 1, 0.999968, 1, 1, 0.99685, 1, 1, 1, 1, 1, 1, 1, 1, 1, 1, 1, 1, 1, 1, 1, 1, 1, 1, 1
408, 0.275783, 0.999997, 0.999994, 0.999954, 0.996585, 1, 1, 0.70376, 0.393234, 1, 0.792719, 1, 1, 1, 1, 0.999994, 1, 1, 0.996585, 1, 1, 1, 1, 1, 1, 1, 1, 1, 1, 1, 1, 1, 1, 1, 1, 1, 1, 1
