case index 7 = {
num freq, 1701
num column, 38
Waveln,  combin,  H2O,  umix,  O3,  trace,  N2,  H2Ocnt,  molec,  aercld,  HNO3,  aercld,  CO2,  CO,  CH4,  N2O,  O2,  NH3,  NO,  NO2,  SO2,  cloud,  F11,  F12,  CCl3F,  CF4,  F22,  F113,  F114,  R115,  ClONO2,  HNO4,  CHCl2F,  CCl4,  N2O5,  H2-H2,  H2-HE,  H2-CH4,  CH4-CH4
  [nm],  trans,  trans,  trans,  trans,  trans,  trans,  trans,  scat,  trans,  trans,  abtrns,  trans,  trans,  trans,  trans,  trans,  trans,  trans,  trans,  trans,  trans,  trans,  trans,  trans,  trans,  trans,  trans,  trans,  trans,  trans,  trans,  trans,  trans,  trans,  trans,  trans,  trans,  trans
300, 4.42509e-37, 1, 1, 0.0303791, 0.997274, 1, 1, 0.275769, 5.01918e-35, 1, 2.07874e-10, 1, 1, 1, 1, 1, 1, 1, 0.999234, 0.998038, 1, 1, 1, 1, 1, 1, 1, 1, 1, 1, 1, 1, 1, 1, 1, 1, 1, 1
301, 8.13181e-37, 1, 1, 0.047141, 0.997531, 1, 1, 0.28088, 5.85528e-35, 1, 2.20328e-10, 1, 1, 1, 1, 1, 1, 1, 0.999216, 0.998313, 1, 1, 1, 1, 1, 1, 1, 1, 1, 1, 1, 1, 1, 1, 1, 1, 1, 1
302, 1.43598e-36, 1, 1, 0.0695947, 0.997649, 1, 1, 0.285991, 6.90123e-35, 1, 2.33329e-10, 1, 1, 1, 1, 1, 1, 1, 0.99916, 0.998487, 1, 1, 1, 1, 1, 1, 1, 1, 1, 1, 1, 1, 1, 1, 1, 1, 1, 1
303, 2.39609e-36, 1, 1, 0.0974587, 0.997695, 1, 1, 0.2911, 8.14407e-35, 1, 2.47068e-10, 1, 1, 1, 1, 1, 1, 1, 0.999096, 0.998597, 1, 1, 1, 1, 1, 1, 1, 1, 1, 1, 1, 1, 1, 1, 1, 1, 1, 1
304, 3.84378e-36, 1, 1, 0.130619, 0.997782, 1, 1, 0.296207, 9.60821e-35, 1, 2.61581e-10, 1, 1, 1, 1, 1, 1, 1, 0.99906, 0.99872, 1, 1, 1, 1, 1, 1, 1, 1, 1, 1, 1, 1, 1, 1, 1, 1, 1, 1
305, 5.95044e-36, 1, 1, 0.169513, 0.997879, 1, 1, 0.301309, 1.13245e-34, 1, 2.76796e-10, 1, 1, 1, 1, 1, 1, 1, 0.999047, 0.998829, 1, 1, 1, 1, 1, 1, 1, 1, 1, 1, 1, 1, 1, 1, 1, 1, 1, 1
306, 8.87552e-36, 1, 1, 0.212021, 0.997922, 1, 1, 0.306407, 1.33321e-34, 1, 2.92689e-10, 1, 1, 1, 1, 1, 1, 1, 0.999032, 0.998889, 1, 1, 1, 1, 1, 1, 1, 1, 1, 1, 1, 1, 1, 1, 1, 1, 1, 1
307, 1.29569e-35, 1, 1, 0.259198, 0.997959, 1, 1, 0.311498, 1.56876e-34, 1, 3.09393e-10, 1, 1, 1, 1, 1, 1, 1, 0.999008, 0.998951, 1, 1, 1, 1, 1, 1, 1, 1, 1, 1, 1, 1, 1, 1, 1, 1, 1, 1
308, 1.82881e-35, 1, 1, 0.307496, 0.998043, 1, 1, 0.316581, 1.84583e-34, 1, 3.27037e-10, 1, 1, 1, 1, 1, 1, 1, 0.998973, 0.999069, 1, 1, 1, 1, 1, 1, 1, 1, 1, 1, 1, 1, 1, 1, 1, 1, 1, 1
309, 2.53596e-35, 1, 1, 0.357026, 0.998064, 1, 1, 0.321656, 2.17077e-34, 1, 3.4563e-10, 1, 1, 1, 1, 1, 1, 1, 0.998919, 0.999144, 1, 1, 1, 1, 1, 1, 1, 1, 1, 1, 1, 1, 1, 1, 1, 1, 1, 1
310, 3.45302e-35, 1, 1, 0.40902, 0.998103, 1, 1, 0.326722, 2.54888e-34, 1, 3.65071e-10, 1, 1, 1, 1, 1, 1, 1, 0.998869, 0.999232, 1, 1, 1, 1, 1, 1, 1, 1, 1, 1, 1, 1, 1, 1, 1, 1, 1, 1
311, 4.58529e-35, 1, 1, 0.457282, 0.998172, 1, 1, 0.331777, 2.98776e-34, 1, 3.85346e-10, 1, 1, 1, 1, 1, 1, 1, 0.998835, 0.999337, 1, 1, 1, 1, 1, 1, 1, 1, 1, 1, 1, 1, 1, 1, 1, 1, 1, 1
312, 6.04069e-35, 1, 1, 0.506548, 0.998239, 1, 1, 0.33682, 3.49989e-34, 1, 4.06629e-10, 1, 1, 1, 1, 1, 1, 1, 0.998799, 0.999439, 1, 1, 1, 1, 1, 1, 1, 1, 1, 1, 1, 1, 1, 1, 1, 1, 1, 1
313, 7.83267e-35, 1, 1, 0.554075, 0.998289, 1, 1, 0.34185, 4.09959e-34, 1, 4.29079e-10, 1, 1, 1, 1, 1, 1, 1, 0.998779, 0.999509, 1, 1, 1, 1, 1, 1, 1, 1, 1, 1, 1, 1, 1, 1, 1, 1, 1, 1
314, 1.0035e-34, 1, 1, 0.597647, 0.998337, 1, 1, 0.346867, 4.80014e-34, 1, 4.5271e-10, 1, 1, 1, 1, 1, 1, 1, 0.998752, 0.999585, 1, 1, 1, 1, 1, 1, 1, 1, 1, 1, 1, 1, 1, 1, 1, 1, 1, 1
315, 1.27286e-34, 1, 1, 0.640249, 0.998355, 1, 1, 0.35187, 5.61204e-34, 1, 4.77401e-10, 1, 1, 1, 1, 1, 1, 1, 0.998706, 0.999648, 1, 1, 1, 1, 1, 1, 1, 1, 1, 1, 1, 1, 1, 1, 1, 1, 1, 1
316, 1.59251e-34, 1, 1, 0.677592, 0.998351, 1, 1, 0.356857, 6.5496e-34, 1, 5.03109e-10, 1, 1, 1, 1, 1, 1, 1, 0.998668, 0.999684, 1, 1, 1, 1, 1, 1, 1, 1, 1, 1, 1, 1, 1, 1, 1, 1, 1, 1
317, 1.97527e-34, 1, 1, 0.711284, 0.998334, 1, 1, 0.361828, 7.63791e-34, 1, 5.30035e-10, 1, 1, 1, 1, 1, 1, 1, 0.998606, 0.999728, 1, 1, 1, 1, 1, 1, 1, 1, 1, 1, 1, 1, 1, 1, 1, 1, 1, 1
318, 2.45432e-34, 1, 1, 0.747236, 0.998327, 1, 1, 0.366782, 8.90638e-34, 1, 5.58386e-10, 1, 1, 1, 1, 1, 1, 1, 0.998548, 0.999778, 1, 1, 1, 1, 1, 1, 1, 1, 1, 1, 1, 1, 1, 1, 1, 1, 1, 1
319, 3.01533e-34, 1, 1, 0.778882, 0.99835, 1, 1, 0.371719, 1.03831e-33, 1, 5.88198e-10, 1, 1, 1, 1, 1, 1, 1, 0.998519, 0.999831, 1, 1, 1, 1, 1, 1, 1, 1, 1, 1, 1, 1, 1, 1, 1, 1, 1, 1
320, 3.67935e-34, 1, 1, 0.804877, 0.99835, 1, 1, 0.376637, 1.20924e-33, 1, 6.19326e-10, 1, 1, 1, 1, 1, 1, 1, 0.998487, 0.999863, 1, 1, 1, 1, 1, 1, 1, 1, 1, 1, 1, 1, 1, 1, 1, 1, 1, 1
321, 4.48103e-34, 1, 1, 0.83268, 0.998357, 1, 1, 0.381536, 1.4064e-33, 1, 6.51682e-10, 1, 1, 1, 1, 1, 1, 1, 0.998466, 0.999891, 1, 1, 1, 1, 1, 1, 1, 1, 1, 1, 1, 1, 1, 1, 1, 1, 1, 1
322, 5.36142e-34, 1, 1, 0.848444, 0.998354, 1, 1, 0.386415, 1.63465e-33, 1, 6.85498e-10, 1, 1, 1, 1, 1, 1, 1, 0.998433, 0.999921, 1, 1, 1, 1, 1, 1, 1, 1, 1, 1, 1, 1, 1, 1, 1, 1, 1, 1
323, 6.47448e-34, 1, 1, 0.867718, 0.998332, 1, 1, 0.391274, 1.89979e-33, 1, 7.21039e-10, 1, 1, 1, 1, 1, 1, 1, 0.998389, 0.999943, 1, 1, 1, 1, 1, 1, 1, 1, 1, 1, 1, 1, 1, 1, 1, 1, 1, 1
324, 7.79996e-34, 1, 1, 0.891258, 0.998318, 1, 1, 0.396111, 2.20756e-33, 1, 7.58384e-10, 1, 1, 1, 1, 1, 1, 1, 0.998359, 0.999958, 1, 1, 1, 1, 1, 1, 1, 1, 1, 1, 1, 1, 1, 1, 1, 1, 1, 1
325, 9.23586e-34, 1, 1, 0.898946, 0.998286, 1, 1, 0.400927, 2.56225e-33, 1, 7.97367e-10, 1, 1, 1, 1, 1, 1, 1, 0.998317, 0.999969, 1, 1, 1, 1, 1, 1, 1, 1, 1, 1, 1, 1, 1, 1, 1, 1, 1, 1
326, 1.10461e-33, 1, 1, 0.914951, 0.998254, 1, 1, 0.40572, 2.96842e-33, 1, 8.37808e-10, 1, 1, 1, 1, 1, 1, 1, 0.998278, 0.999976, 1, 1, 1, 1, 1, 1, 1, 1, 1, 1, 1, 1, 1, 1, 1, 1, 1, 1
327, 1.30912e-33, 1, 1, 0.928995, 0.99824, 1, 1, 0.410491, 3.43523e-33, 1, 8.79936e-10, 1, 1, 1, 1, 1, 1, 1, 0.998256, 0.999983, 1, 1, 1, 1, 1, 1, 1, 1, 1, 1, 1, 1, 1, 1, 1, 1, 1, 1
328, 1.53877e-33, 1, 1, 0.932116, 0.998211, 1, 1, 0.415238, 3.97465e-33, 1, 9.24106e-10, 1, 1, 1, 1, 1, 1, 1, 0.998223, 0.999987, 1, 1, 1, 1, 1, 1, 1, 1, 1, 1, 1, 1, 1, 1, 1, 1, 1, 1
329, 1.83194e-33, 1, 1, 0.947168, 0.998165, 1, 1, 0.419961, 4.59859e-33, 1, 9.70481e-10, 1, 1, 1, 1, 1, 1, 1, 0.998174, 0.99999, 1, 1, 1, 1, 1, 1, 1, 1, 1, 1, 1, 1, 1, 1, 1, 1, 1, 1
330, 2.15678e-33, 1, 1, 0.956386, 0.998139, 1, 1, 0.42466, 5.31719e-33, 1, 1.01895e-09, 1, 1, 1, 1, 1, 1, 1, 0.998146, 0.999993, 1, 1, 1, 1, 1, 1, 1, 1, 1, 1, 1, 1, 1, 1, 1, 1, 1, 1
331, 2.5174e-33, 1, 1, 0.955445, 0.998119, 1, 1, 0.429334, 6.13967e-33, 1, 1.06924e-09, 1, 1, 1, 1, 1, 1, 1, 0.998123, 0.999996, 1, 1, 1, 1, 1, 1, 1, 1, 1, 1, 1, 1, 1, 1, 1, 1, 1, 1
332, 2.96722e-33, 1, 1, 0.964927, 0.998028, 1, 1, 0.433983, 7.08156e-33, 1, 1.12148e-09, 1, 1, 1, 1, 1, 1, 1, 0.99803, 0.999997, 1, 1, 1, 1, 1, 1, 1, 1, 1, 1, 1, 1, 1, 1, 1, 1, 1, 1
333, 3.47846e-33, 1, 1, 0.97236, 0.997956, 1, 1, 0.438606, 8.16541e-33, 1, 1.1761e-09, 1, 1, 1, 1, 1, 1, 1, 0.997959, 0.999998, 1, 1, 1, 1, 1, 1, 1, 1, 1, 1, 1, 1, 1, 1, 1, 1, 1, 1
334, 4.06416e-33, 1, 0.999961, 0.973382, 0.997976, 1, 1, 0.443203, 9.42653e-33, 1, 1.23346e-09, 1, 1, 1, 1, 0.999961, 1, 1, 0.997978, 0.999998, 1, 1, 1, 1, 1, 1, 1, 1, 1, 1, 1, 1, 1, 1, 1, 1, 1, 1
335, 4.81105e-33, 1, 0.99984, 0.980816, 0.997968, 1, 1, 0.447773, 1.09551e-32, 1, 1.29417e-09, 1, 1, 1, 1, 0.99984, 1, 1, 0.997969, 0.999999, 1, 1, 1, 1, 1, 1, 1, 1, 1, 1, 1, 1, 1, 1, 1, 1, 1, 1
336, 5.72035e-33, 1, 0.999702, 0.985291, 0.997939, 1, 1, 0.452317, 1.28567e-32, 1, 1.35878e-09, 1, 1, 1, 1, 0.999702, 1, 1, 0.997939, 0.999999, 1, 1, 1, 1, 1, 1, 1, 1, 1, 1, 1, 1, 1, 1, 1, 1, 1, 1
337, 6.79685e-33, 1, 0.999625, 0.982624, 0.997923, 1, 1, 0.456834, 1.51661e-32, 1, 1.42717e-09, 1, 1, 1, 1, 0.999625, 1, 1, 0.997923, 1, 1, 1, 1, 1, 1, 1, 1, 1, 1, 1, 1, 1, 1, 1, 1, 1, 1, 1
338, 8.12945e-33, 1, 0.999577, 0.984864, 0.997835, 1, 1, 0.461324, 1.79051e-32, 1, 1.4991e-09, 1, 1, 1, 1, 0.999577, 1, 1, 0.997835, 1, 1, 1, 1, 1, 1, 1, 1, 1, 1, 1, 1, 1, 1, 1, 1, 1, 1, 1
339, 9.75583e-33, 1, 0.99949, 0.989927, 0.997723, 1, 1, 0.465785, 2.11886e-32, 1, 1.57486e-09, 1, 1, 1, 1, 0.99949, 1, 1, 0.997723, 1, 1, 1, 1, 1, 1, 1, 1, 1, 1, 1, 1, 1, 1, 1, 1, 1, 1, 1
340, 1.17355e-32, 1, 0.999316, 0.990896, 0.997654, 1, 1, 0.470219, 2.52384e-32, 1, 1.65513e-09, 1, 1, 1, 1, 0.999316, 1, 1, 0.997654, 1, 1, 1, 1, 1, 1, 1, 1, 1, 1, 1, 1, 1, 1, 1, 1, 1, 1, 1
341, 1.422e-32, 1, 0.999034, 0.992173, 0.997627, 1, 1, 0.474625, 3.02516e-32, 1, 1.74025e-09, 1, 1, 1, 1, 0.999034, 1, 1, 0.997627, 1, 1, 1, 1, 1, 1, 1, 1, 1, 1, 1, 1, 1, 1, 1, 1, 1, 1, 1
342, 1.72805e-32, 1, 0.998685, 0.99504, 0.997691, 1, 1, 0.479002, 3.6339e-32, 1, 1.83004e-09, 1, 1, 1, 1, 0.998685, 1, 1, 0.997691, 1, 1, 1, 1, 1, 1, 1, 1, 1, 1, 1, 1, 1, 1, 1, 1, 1, 1, 1
343, 2.09329e-32, 1, 0.998423, 0.995039, 0.997753, 1, 1, 0.483351, 4.36562e-32, 1, 1.92448e-09, 1, 1, 1, 1, 0.998423, 1, 1, 0.997753, 0.999999, 1, 1, 1, 1, 1, 1, 1, 1, 1, 1, 1, 1, 1, 1, 1, 1, 1, 1
344, 2.53383e-32, 1, 0.998449, 0.993665, 0.997703, 1, 1, 0.48767, 5.24364e-32, 1, 2.0237e-09, 1, 1, 1, 1, 0.998449, 1, 1, 0.997703, 0.999999, 1, 1, 1, 1, 1, 1, 1, 1, 1, 1, 1, 1, 1, 1, 1, 1, 1, 1
345, 3.07188e-32, 1, 0.99881, 0.994863, 0.997601, 1, 1, 0.491962, 6.28993e-32, 1, 2.1273e-09, 1, 1, 1, 1, 0.99881, 1, 1, 0.997601, 1, 1, 1, 1, 1, 1, 1, 1, 1, 1, 1, 1, 1, 1, 1, 1, 1, 1, 1
346, 3.71814e-32, 1, 0.999267, 0.997149, 0.997501, 1, 1, 0.496223, 7.52925e-32, 1, 2.23484e-09, 1, 1, 1, 1, 0.999267, 1, 1, 0.997501, 1, 1, 1, 1, 1, 1, 1, 1, 1, 1, 1, 1, 1, 1, 1, 1, 1, 1, 1
347, 4.4876e-32, 1, 0.999572, 0.998117, 0.997392, 1, 1, 0.500456, 9.002e-32, 1, 2.34691e-09, 1, 1, 1, 1, 0.999572, 1, 1, 0.997392, 1, 1, 1, 1, 1, 1, 1, 1, 1, 1, 1, 1, 1, 1, 1, 1, 1, 1, 1
348, 5.41185e-32, 1, 0.999707, 0.998517, 0.997311, 1, 1, 0.504659, 1.07605e-31, 1, 2.46441e-09, 1, 1, 1, 1, 0.999707, 1, 1, 0.997311, 1, 1, 1, 1, 1, 1, 1, 1, 1, 1, 1, 1, 1, 1, 1, 1, 1, 1, 1
349, 6.52436e-32, 1, 0.999735, 0.99905, 0.99738, 1, 1, 0.508832, 1.28582e-31, 1, 2.58763e-09, 1, 1, 1, 1, 0.999735, 1, 1, 0.99738, 1, 1, 1, 1, 1, 1, 1, 1, 1, 1, 1, 1, 1, 1, 1, 1, 1, 1, 1
350, 7.84903e-32, 1, 0.999706, 0.999265, 0.997467, 1, 1, 0.512976, 1.53418e-31, 1, 2.71613e-09, 1, 1, 1, 1, 0.999706, 1, 1, 0.997467, 0.999999, 1, 1, 1, 1, 1, 1, 1, 1, 1, 1, 1, 1, 1, 1, 1, 1, 1, 1
351, 9.41743e-32, 1, 0.999651, 0.998952, 0.997444, 1, 1, 0.517089, 1.82693e-31, 1, 2.84971e-09, 1, 1, 1, 1, 0.999651, 1, 1, 0.997444, 0.999999, 1, 1, 1, 1, 1, 1, 1, 1, 1, 1, 1, 1, 1, 1, 1, 1, 1, 1
352, 1.12907e-31, 1, 0.999568, 0.998764, 0.99746, 1, 1, 0.521174, 2.17356e-31, 1, 2.98913e-09, 1, 1, 1, 1, 0.999568, 1, 1, 0.997461, 1, 1, 1, 1, 1, 1, 1, 1, 1, 1, 1, 1, 1, 1, 1, 1, 1, 1, 1
353, 1.35393e-31, 1, 0.999445, 0.999186, 0.997407, 1, 1, 0.525228, 2.58566e-31, 1, 3.13527e-09, 1, 1, 1, 1, 0.999445, 1, 1, 0.997408, 1, 1, 1, 1, 1, 1, 1, 1, 1, 1, 1, 1, 1, 1, 1, 1, 1, 1, 1
354, 1.6224e-31, 1, 0.999271, 0.999641, 0.997205, 1, 1, 0.529253, 3.07481e-31, 1, 3.28823e-09, 1, 1, 1, 1, 0.999271, 1, 1, 0.997206, 0.999999, 1, 1, 1, 1, 1, 1, 1, 1, 1, 1, 1, 1, 1, 1, 1, 1, 1, 1
355, 1.94079e-31, 1, 0.998991, 0.999727, 0.997149, 1, 1, 0.533247, 3.65174e-31, 1, 3.44727e-09, 1, 1, 1, 1, 0.998991, 1, 1, 0.997149, 1, 1, 1, 1, 1, 1, 1, 1, 1, 1, 1, 1, 1, 1, 1, 1, 1, 1, 1
356, 2.31706e-31, 1, 0.998513, 0.999655, 0.997154, 1, 1, 0.537211, 4.33023e-31, 1, 3.6121e-09, 1, 1, 1, 1, 0.998513, 1, 1, 0.997155, 1, 1, 1, 1, 1, 1, 1, 1, 1, 1, 1, 1, 1, 1, 1, 1, 1, 1, 1
357, 2.76318e-31, 1, 0.997748, 0.999582, 0.997057, 1, 1, 0.541145, 5.13143e-31, 1, 3.78387e-09, 1, 1, 1, 1, 0.997748, 1, 1, 0.997057, 1, 1, 1, 1, 1, 1, 1, 1, 1, 1, 1, 1, 1, 1, 1, 1, 1, 1, 1
358, 3.29457e-31, 1, 0.996678, 0.999617, 0.997105, 1, 1, 0.54505, 6.08045e-31, 1, 3.9637e-09, 1, 1, 1, 1, 0.996678, 1, 1, 0.997106, 1, 1, 1, 1, 1, 1, 1, 1, 1, 1, 1, 1, 1, 1, 1, 1, 1, 1, 1
359, 3.92568e-31, 1, 0.995504, 0.999673, 0.997254, 1, 1, 0.548924, 7.20131e-31, 1, 4.15164e-09, 1, 1, 1, 1, 0.995504, 1, 1, 0.997255, 1, 1, 1, 1, 1, 1, 1, 1, 1, 1, 1, 1, 1, 1, 1, 1, 1, 1, 1
360, 4.67069e-31, 1, 0.994711, 0.999675, 0.997228, 1, 1, 0.552768, 8.51502e-31, 1, 4.34689e-09, 1, 1, 1, 1, 0.994711, 1, 1, 0.997229, 1, 1, 1, 1, 1, 1, 1, 1, 1, 1, 1, 1, 1, 1, 1, 1, 1, 1, 1
361, 5.55276e-31, 1, 0.994912, 0.999714, 0.99711, 1, 1, 0.556582, 1.0051e-30, 1, 4.54933e-09, 1, 1, 1, 1, 0.994912, 1, 1, 0.99711, 1, 1, 1, 1, 1, 1, 1, 1, 1, 1, 1, 1, 1, 1, 1, 1, 1, 1, 1
362, 6.60412e-31, 1, 0.996214, 0.999797, 0.997081, 1, 1, 0.560366, 1.18561e-30, 1, 4.76032e-09, 1, 1, 1, 1, 0.996214, 1, 1, 0.997082, 1, 1, 1, 1, 1, 1, 1, 1, 1, 1, 1, 1, 1, 1, 1, 1, 1, 1, 1
363, 7.85474e-31, 1, 0.997818, 0.999865, 0.997091, 1, 1, 0.56412, 1.39846e-30, 1, 4.98102e-09, 1, 1, 1, 1, 0.997818, 1, 1, 0.997091, 0.999999, 1, 1, 1, 1, 1, 1, 1, 1, 1, 1, 1, 1, 1, 1, 1, 1, 1, 1
364, 9.33109e-31, 1, 0.998937, 0.99989, 0.99699, 1, 1, 0.567844, 1.64888e-30, 1, 5.21147e-09, 1, 1, 1, 1, 0.998937, 1, 1, 0.99699, 1, 1, 1, 1, 1, 1, 1, 1, 1, 1, 1, 1, 1, 1, 1, 1, 1, 1, 1
365, 1.10621e-30, 1, 0.999507, 0.999911, 0.996852, 1, 1, 0.571538, 1.94133e-30, 1, 5.4506e-09, 1, 1, 1, 1, 0.999507, 1, 1, 0.996852, 1, 1, 1, 1, 1, 1, 1, 1, 1, 1, 1, 1, 1, 1, 1, 1, 1, 1, 1
366, 1.30893e-30, 1, 0.999765, 0.999965, 0.996875, 1, 1, 0.575202, 2.28173e-30, 1, 5.69796e-09, 1, 1, 1, 1, 0.999765, 1, 1, 0.996876, 1, 1, 1, 1, 1, 1, 1, 1, 1, 1, 1, 1, 1, 1, 1, 1, 1, 1, 1
367, 1.54727e-30, 1, 0.999874, 0.999998, 0.996943, 1, 1, 0.578837, 2.67982e-30, 1, 5.95519e-09, 1, 1, 1, 1, 0.999874, 1, 1, 0.996943, 1, 1, 1, 1, 1, 1, 1, 1, 1, 1, 1, 1, 1, 1, 1, 1, 1, 1, 1
368, 1.82845e-30, 1, 0.999911, 1, 0.996943, 1, 1, 0.582442, 3.14714e-30, 1, 6.22388e-09, 1, 1, 1, 1, 0.999911, 1, 1, 0.996944, 1, 1, 1, 1, 1, 1, 1, 1, 1, 1, 1, 1, 1, 1, 1, 1, 1, 1, 1
369, 2.15983e-30, 1, 0.999918, 1, 0.996962, 1, 1, 0.586017, 3.69478e-30, 1, 6.50415e-09, 1, 1, 1, 1, 0.999918, 1, 1, 0.996962, 1, 1, 1, 1, 1, 1, 1, 1, 1, 1, 1, 1, 1, 1, 1, 1, 1, 1, 1
370, 2.54796e-30, 1, 0.999918, 1, 0.996979, 1, 1, 0.589563, 4.33254e-30, 1, 6.79475e-09, 1, 1, 1, 1, 0.999918, 1, 1, 0.99698, 0.999999, 1, 1, 1, 1, 1, 1, 1, 1, 1, 1, 1, 1, 1, 1, 1, 1, 1, 1
371, 3.00096e-30, 1, 0.999918, 1, 0.996889, 1, 1, 0.59308, 5.07318e-30, 1, 7.0952e-09, 1, 1, 1, 1, 0.999918, 1, 1, 0.99689, 1, 1, 1, 1, 1, 1, 1, 1, 1, 1, 1, 1, 1, 1, 1, 1, 1, 1, 1
372, 3.53203e-30, 1, 0.999917, 1, 0.996762, 1, 1, 0.596567, 5.93679e-30, 1, 7.40737e-09, 1, 1, 1, 1, 0.999917, 1, 1, 0.996763, 1, 1, 1, 1, 1, 1, 1, 1, 1, 1, 1, 1, 1, 1, 1, 1, 1, 1, 1
373, 4.15717e-30, 1, 0.999903, 1, 0.996806, 1, 1, 0.600025, 6.947e-30, 1, 7.73311e-09, 1, 1, 1, 1, 0.999903, 1, 1, 0.996806, 1, 1, 1, 1, 1, 1, 1, 1, 1, 1, 1, 1, 1, 1, 1, 1, 1, 1, 1
374, 4.89124e-30, 1, 0.999855, 1, 0.996892, 1, 1, 0.603454, 8.12721e-30, 1, 8.0728e-09, 1, 1, 1, 1, 0.999855, 1, 1, 0.996893, 1, 1, 1, 1, 1, 1, 1, 1, 1, 1, 1, 1, 1, 1, 1, 1, 1, 1, 1
375, 5.7456e-30, 1, 0.999738, 1, 0.996774, 1, 1, 0.606854, 9.49604e-30, 1, 8.42507e-09, 1, 1, 1, 1, 0.999738, 1, 1, 0.996775, 0.999999, 1, 1, 1, 1, 1, 1, 1, 1, 1, 1, 1, 1, 1, 1, 1, 1, 1, 1
376, 6.73538e-30, 1, 0.99947, 1, 0.996628, 1, 1, 0.610224, 1.10752e-29, 1, 8.78882e-09, 1, 1, 1, 1, 0.99947, 1, 1, 0.996628, 1, 1, 1, 1, 1, 1, 1, 1, 1, 1, 1, 1, 1, 1, 1, 1, 1, 1, 1
377, 7.88746e-30, 1, 0.998942, 1, 0.996742, 1, 1, 0.613567, 1.29044e-29, 1, 9.16593e-09, 1, 1, 1, 1, 0.998942, 1, 1, 0.996742, 1, 1, 1, 1, 1, 1, 1, 1, 1, 1, 1, 1, 1, 1, 1, 1, 1, 1, 1
378, 9.23189e-30, 1, 0.99815, 1, 0.996881, 1, 1, 0.616881, 1.50335e-29, 1, 9.55882e-09, 1, 1, 1, 1, 0.99815, 1, 1, 0.996881, 1, 1, 1, 1, 1, 1, 1, 1, 1, 1, 1, 1, 1, 1, 1, 1, 1, 1, 1
379, 1.08009e-29, 1, 0.997342, 1, 0.996749, 1, 1, 0.620166, 1.75121e-29, 1, 9.96832e-09, 1, 1, 1, 1, 0.997342, 1, 1, 0.996749, 1, 1, 1, 1, 1, 1, 1, 1, 1, 1, 1, 1, 1, 1, 1, 1, 1, 1, 1
380, 1.26307e-29, 1, 0.996967, 1, 0.99658, 1, 1, 0.623422, 2.03813e-29, 1, 1.03933e-08, 1, 1, 1, 1, 0.996967, 1, 1, 0.99658, 1, 1, 1, 1, 1, 1, 1, 1, 1, 1, 1, 1, 1, 1, 1, 1, 1, 1, 1
381, 1.47593e-29, 1, 0.997296, 1, 0.996617, 1, 1, 0.626651, 2.36828e-29, 1, 1.08321e-08, 1, 1, 1, 1, 0.997296, 1, 1, 0.996618, 1, 1, 1, 1, 1, 1, 1, 1, 1, 1, 1, 1, 1, 1, 1, 1, 1, 1, 1
382, 1.72361e-29, 1, 0.998099, 1, 0.996742, 1, 1, 0.629851, 2.74907e-29, 1, 1.12863e-08, 1, 1, 1, 1, 0.998099, 1, 1, 0.996742, 1, 1, 1, 1, 1, 1, 1, 1, 1, 1, 1, 1, 1, 1, 1, 1, 1, 1, 1
383, 2.01189e-29, 1, 0.998901, 1, 0.996756, 1, 1, 0.633024, 3.19034e-29, 1, 1.17588e-08, 1, 1, 1, 1, 0.998901, 1, 1, 0.996756, 0.999999, 1, 1, 1, 1, 1, 1, 1, 1, 1, 1, 1, 1, 1, 1, 1, 1, 1, 1
384, 2.34624e-29, 1, 0.999436, 1, 0.99665, 1, 1, 0.63617, 3.70072e-29, 1, 1.22497e-08, 1, 1, 1, 1, 0.999436, 1, 1, 0.99665, 1, 1, 1, 1, 1, 1, 1, 1, 1, 1, 1, 1, 1, 1, 1, 1, 1, 1, 1
385, 2.73197e-29, 1, 0.999721, 1, 0.996613, 1, 1, 0.639287, 4.2871e-29, 1, 1.27568e-08, 1, 1, 1, 1, 0.999721, 1, 1, 0.996613, 1, 1, 1, 1, 1, 1, 1, 1, 1, 1, 1, 1, 1, 1, 1, 1, 1, 1, 1
386, 3.1766e-29, 1, 0.999855, 1, 0.99667, 1, 1, 0.642377, 4.96e-29, 1, 1.32802e-08, 1, 1, 1, 1, 0.999855, 1, 1, 0.99667, 1, 1, 1, 1, 1, 1, 1, 1, 1, 1, 1, 1, 1, 1, 1, 1, 1, 1, 1
387, 3.69111e-29, 1, 0.999907, 1, 0.996666, 1, 1, 0.645439, 5.73589e-29, 1, 1.38232e-08, 1, 1, 1, 1, 0.999907, 1, 1, 0.996666, 1, 1, 1, 1, 1, 1, 1, 1, 1, 1, 1, 1, 1, 1, 1, 1, 1, 1, 1
388, 4.2882e-29, 0.999998, 0.999917, 1, 0.996603, 1, 1, 0.648475, 6.63297e-29, 1, 1.43883e-08, 1, 1, 1, 1, 0.999917, 1, 1, 0.996603, 1, 1, 1, 1, 1, 1, 1, 1, 1, 1, 1, 1, 1, 1, 1, 1, 1, 1, 1
389, 4.98069e-29, 0.999989, 0.999918, 1, 0.99656, 1, 1, 0.651483, 7.66896e-29, 1, 1.49756e-08, 1, 1, 1, 1, 0.999918, 1, 1, 0.99656, 1, 1, 1, 1, 1, 1, 1, 1, 1, 1, 1, 1, 1, 1, 1, 1, 1, 1, 1
390, 5.78007e-29, 0.999968, 0.99993, 1, 0.996544, 1, 1, 0.654465, 8.85954e-29, 1, 1.55821e-08, 1, 1, 1, 1, 0.99993, 1, 1, 0.996544, 1, 1, 1, 1, 1, 1, 1, 1, 1, 1, 1, 1, 1, 1, 1, 1, 1, 1, 1
391, 6.70011e-29, 0.999955, 0.99996, 1, 0.99651, 1, 1, 0.65742, 1.02239e-28, 1, 1.62061e-08, 1, 1, 1, 1, 0.99996, 1, 1, 0.99651, 1, 1, 1, 1, 1, 1, 1, 1, 1, 1, 1, 1, 1, 1, 1, 1, 1, 1, 1
392, 7.76277e-29, 0.99996, 0.999989, 1, 0.996532, 1, 1, 0.660349, 1.17921e-28, 1, 1.68512e-08, 1, 1, 1, 1, 0.999989, 1, 1, 0.996532, 1, 1, 1, 1, 1, 1, 1, 1, 1, 1, 1, 1, 1, 1, 1, 1, 1, 1, 1
393, 8.99383e-29, 0.99997, 1, 1, 0.996686, 1, 1, 0.663252, 1.35999e-28, 1, 1.75214e-08, 1, 1, 1, 1, 1, 1, 1, 0.996686, 1, 1, 1, 1, 1, 1, 1, 1, 1, 1, 1, 1, 1, 1, 1, 1, 1, 1, 1
394, 1.04176e-28, 0.99998, 1, 1, 0.996754, 1, 1, 0.666128, 1.56842e-28, 1, 1.82181e-08, 1, 1, 1, 1, 1, 1, 1, 0.996754, 1, 1, 1, 1, 1, 1, 1, 1, 1, 1, 1, 1, 1, 1, 1, 1, 1, 1, 1
395, 1.20541e-28, 0.999969, 1, 1, 0.996647, 1, 1, 0.668978, 1.80732e-28, 1, 1.89401e-08, 1, 1, 1, 1, 1, 1, 1, 0.996647, 1, 1, 1, 1, 1, 1, 1, 1, 1, 1, 1, 1, 1, 1, 1, 1, 1, 1, 1
396, 1.39218e-28, 0.999863, 1, 1, 0.996613, 1, 1, 0.671803, 2.07886e-28, 1, 1.96843e-08, 1, 1, 1, 1, 1, 1, 1, 0.996613, 1, 1, 1, 1, 1, 1, 1, 1, 1, 1, 1, 1, 1, 1, 1, 1, 1, 1, 1
397, 1.60543e-28, 0.999717, 1, 1, 0.996613, 1, 1, 0.674602, 2.38774e-28, 1, 2.0452e-08, 1, 1, 1, 1, 1, 1, 1, 0.996613, 1, 1, 1, 1, 1, 1, 1, 1, 1, 1, 1, 1, 1, 1, 1, 1, 1, 1, 1
398, 1.85056e-28, 0.999682, 1, 1, 0.996517, 1, 1, 0.677376, 2.74139e-28, 1, 2.12479e-08, 1, 1, 1, 1, 1, 1, 1, 0.996517, 1, 1, 1, 1, 1, 1, 1, 1, 1, 1, 1, 1, 1, 1, 1, 1, 1, 1, 1
399, 2.13289e-28, 0.999726, 0.999987, 1, 0.996441, 1, 1, 0.680125, 3.14701e-28, 1, 2.20736e-08, 1, 1, 1, 1, 0.999987, 1, 1, 0.996441, 1, 1, 1, 1, 1, 1, 1, 1, 1, 1, 1, 1, 1, 1, 1, 1, 1, 1, 1
400, 2.4568e-28, 0.999788, 0.999957, 1, 0.996362, 1, 1, 0.682849, 3.61066e-28, 1, 2.2926e-08, 1, 1, 1, 1, 0.999957, 1, 1, 0.996362, 1, 1, 1, 1, 1, 1, 1, 1, 1, 1, 1, 1, 1, 1, 1, 1, 1, 1, 1
401, 2.82817e-28, 0.999867, 0.999931, 1, 0.996409, 1, 1, 0.685548, 4.13959e-28, 1, 2.38032e-08, 1, 1, 1, 1, 0.999931, 1, 1, 0.996409, 1, 1, 1, 1, 1, 1, 1, 1, 1, 1, 1, 1, 1, 1, 1, 1, 1, 1, 1
402, 3.2549e-28, 0.999923, 0.999922, 1, 0.996651, 1, 1, 0.688221, 4.74431e-28, 1, 2.47094e-08, 1, 1, 1, 1, 0.999922, 1, 1, 0.996651, 1, 1, 1, 1, 1, 1, 1, 1, 1, 1, 1, 1, 1, 1, 1, 1, 1, 1, 1
