case index 45 = {
num freq, 1701
num column, 38
Waveln,  combin,  H2O,  umix,  O3,  trace,  N2,  H2Ocnt,  molec,  aercld,  HNO3,  aercld,  CO2,  CO,  CH4,  N2O,  O2,  NH3,  NO,  NO2,  SO2,  cloud,  F11,  F12,  CCl3F,  CF4,  F22,  F113,  F114,  R115,  ClONO2,  HNO4,  CHCl2F,  CCl4,  N2O5,  H2-H2,  H2-HE,  H2-CH4,  CH4-CH4
  [nm],  trans,  trans,  trans,  trans,  trans,  trans,  trans,  scat,  trans,  trans,  abtrns,  trans,  trans,  trans,  trans,  trans,  trans,  trans,  trans,  trans,  trans,  trans,  trans,  trans,  trans,  trans,  trans,  trans,  trans,  trans,  trans,  trans,  trans,  trans,  trans,  trans,  trans,  trans
300, 0.00952529, 1, 1, 0.0372884, 0.997438, 1, 1, 0.297995, 0.854826, 1, 0.977201, 1, 1, 1, 1, 1, 1, 1, 0.999281, 0.998156, 1, 1, 1, 1, 1, 1, 1, 1, 1, 1, 1, 1, 1, 1, 1, 1, 1, 1
301, 0.0146607, 1, 1, 0.0564277, 0.997679, 1, 1, 0.303183, 0.855109, 1, 0.977313, 1, 1, 1, 1, 1, 1, 1, 0.999263, 0.998414, 1, 1, 1, 1, 1, 1, 1, 1, 1, 1, 1, 1, 1, 1, 1, 1, 1, 1
302, 0.0215171, 1, 1, 0.0814277, 0.99779, 1, 1, 0.308365, 0.855416, 1, 0.977405, 1, 1, 1, 1, 1, 1, 1, 0.99921, 0.998578, 1, 1, 1, 1, 1, 1, 1, 1, 1, 1, 1, 1, 1, 1, 1, 1, 1, 1
303, 0.0300401, 1, 1, 0.11184, 0.997833, 1, 1, 0.31354, 0.855727, 1, 0.977493, 1, 1, 1, 1, 1, 1, 1, 0.999151, 0.998681, 1, 1, 1, 1, 1, 1, 1, 1, 1, 1, 1, 1, 1, 1, 1, 1, 1, 1
304, 0.04023, 1, 1, 0.147336, 0.997915, 1, 1, 0.318706, 0.856037, 1, 0.977582, 1, 1, 1, 1, 1, 1, 1, 0.999117, 0.998796, 1, 1, 1, 1, 1, 1, 1, 1, 1, 1, 1, 1, 1, 1, 1, 1, 1, 1
305, 0.0522516, 1, 1, 0.188308, 0.998005, 1, 1, 0.323864, 0.856346, 1, 0.977668, 1, 1, 1, 1, 1, 1, 1, 0.999105, 0.9989, 1, 1, 1, 1, 1, 1, 1, 1, 1, 1, 1, 1, 1, 1, 1, 1, 1, 1
306, 0.0655289, 1, 1, 0.232468, 0.998047, 1, 1, 0.32901, 0.856652, 1, 0.977753, 1, 1, 1, 1, 1, 1, 1, 0.999091, 0.998956, 1, 1, 1, 1, 1, 1, 1, 1, 1, 1, 1, 1, 1, 1, 1, 1, 1, 1
307, 0.0804145, 1, 1, 0.280822, 0.998081, 1, 1, 0.334145, 0.856957, 1, 0.977836, 1, 1, 1, 1, 1, 1, 1, 0.999067, 0.999014, 1, 1, 1, 1, 1, 1, 1, 1, 1, 1, 1, 1, 1, 1, 1, 1, 1, 1
308, 0.095899, 1, 1, 0.329849, 0.998161, 1, 1, 0.339268, 0.857261, 1, 0.97792, 1, 1, 1, 1, 1, 1, 1, 0.999035, 0.999125, 1, 1, 1, 1, 1, 1, 1, 1, 1, 1, 1, 1, 1, 1, 1, 1, 1, 1
309, 0.112053, 1, 1, 0.379585, 0.998181, 1, 1, 0.344377, 0.857564, 1, 0.978002, 1, 1, 1, 1, 1, 1, 1, 0.998984, 0.999196, 1, 1, 1, 1, 1, 1, 1, 1, 1, 1, 1, 1, 1, 1, 1, 1, 1, 1
310, 0.129247, 1, 1, 0.431387, 0.998217, 1, 1, 0.349471, 0.857866, 1, 0.978084, 1, 1, 1, 1, 1, 1, 1, 0.998937, 0.999278, 1, 1, 1, 1, 1, 1, 1, 1, 1, 1, 1, 1, 1, 1, 1, 1, 1, 1
311, 0.145666, 1, 1, 0.47913, 0.998282, 1, 1, 0.354551, 0.858165, 1, 0.978165, 1, 1, 1, 1, 1, 1, 1, 0.998904, 0.999376, 1, 1, 1, 1, 1, 1, 1, 1, 1, 1, 1, 1, 1, 1, 1, 1, 1, 1
312, 0.162728, 1, 1, 0.527497, 0.998345, 1, 1, 0.359613, 0.858462, 1, 0.978245, 1, 1, 1, 1, 1, 1, 1, 0.998871, 0.999473, 1, 1, 1, 1, 1, 1, 1, 1, 1, 1, 1, 1, 1, 1, 1, 1, 1, 1
313, 0.179568, 1, 1, 0.573944, 0.998392, 1, 1, 0.364659, 0.858759, 1, 0.978326, 1, 1, 1, 1, 1, 1, 1, 0.998852, 0.99954, 1, 1, 1, 1, 1, 1, 1, 1, 1, 1, 1, 1, 1, 1, 1, 1, 1, 1
314, 0.195541, 1, 1, 0.616281, 0.998437, 1, 1, 0.369687, 0.859055, 1, 0.978406, 1, 1, 1, 1, 1, 1, 1, 0.998827, 0.99961, 1, 1, 1, 1, 1, 1, 1, 1, 1, 1, 1, 1, 1, 1, 1, 1, 1, 1
315, 0.211501, 1, 1, 0.657513, 0.998454, 1, 1, 0.374695, 0.859349, 1, 0.978485, 1, 1, 1, 1, 1, 1, 1, 0.998784, 0.999669, 1, 1, 1, 1, 1, 1, 1, 1, 1, 1, 1, 1, 1, 1, 1, 1, 1, 1
316, 0.226108, 1, 1, 0.693524, 0.99845, 1, 1, 0.379685, 0.85964, 1, 0.978563, 1, 1, 1, 1, 1, 1, 1, 0.998747, 0.999703, 1, 1, 1, 1, 1, 1, 1, 1, 1, 1, 1, 1, 1, 1, 1, 1, 1, 1
317, 0.239827, 1, 1, 0.725904, 0.998434, 1, 1, 0.384653, 0.859929, 1, 0.978639, 1, 1, 1, 1, 1, 1, 1, 0.99869, 0.999744, 1, 1, 1, 1, 1, 1, 1, 1, 1, 1, 1, 1, 1, 1, 1, 1, 1, 1
318, 0.254526, 1, 1, 0.760338, 0.998427, 1, 1, 0.389601, 0.860218, 1, 0.978716, 1, 1, 1, 1, 1, 1, 1, 0.998636, 0.999791, 1, 1, 1, 1, 1, 1, 1, 1, 1, 1, 1, 1, 1, 1, 1, 1, 1, 1
319, 0.268052, 1, 1, 0.790587, 0.998449, 1, 1, 0.394527, 0.860507, 1, 0.978793, 1, 1, 1, 1, 1, 1, 1, 0.998608, 0.99984, 1, 1, 1, 1, 1, 1, 1, 1, 1, 1, 1, 1, 1, 1, 1, 1, 1, 1
320, 0.279987, 1, 1, 0.815365, 0.998448, 1, 1, 0.399431, 0.860794, 1, 0.978869, 1, 1, 1, 1, 1, 1, 1, 0.998577, 0.999871, 1, 1, 1, 1, 1, 1, 1, 1, 1, 1, 1, 1, 1, 1, 1, 1, 1, 1
321, 0.292693, 1, 1, 0.841815, 0.998455, 1, 1, 0.404312, 0.861078, 1, 0.978945, 1, 1, 1, 1, 1, 1, 1, 0.998557, 0.999898, 1, 1, 1, 1, 1, 1, 1, 1, 1, 1, 1, 1, 1, 1, 1, 1, 1, 1
322, 0.301522, 1, 1, 0.856809, 0.998452, 1, 1, 0.409169, 0.86136, 1, 0.979018, 1, 1, 1, 1, 1, 1, 1, 0.998526, 0.999926, 1, 1, 1, 1, 1, 1, 1, 1, 1, 1, 1, 1, 1, 1, 1, 1, 1, 1
323, 0.311757, 1, 1, 0.875075, 0.998432, 1, 1, 0.414002, 0.861643, 1, 0.979092, 1, 1, 1, 1, 1, 1, 1, 0.998485, 0.999946, 1, 1, 1, 1, 1, 1, 1, 1, 1, 1, 1, 1, 1, 1, 1, 1, 1, 1
324, 0.323466, 1, 1, 0.897392, 0.998418, 1, 1, 0.418811, 0.861925, 1, 0.979166, 1, 1, 1, 1, 1, 1, 1, 0.998457, 0.999961, 1, 1, 1, 1, 1, 1, 1, 1, 1, 1, 1, 1, 1, 1, 1, 1, 1, 1
325, 0.329891, 1, 1, 0.90468, 0.998389, 1, 1, 0.423594, 0.862205, 1, 0.97924, 1, 1, 1, 1, 1, 1, 1, 0.998418, 0.99997, 1, 1, 1, 1, 1, 1, 1, 1, 1, 1, 1, 1, 1, 1, 1, 1, 1, 1
326, 0.339334, 1, 1, 0.919809, 0.998359, 1, 1, 0.428353, 0.862482, 1, 0.979312, 1, 1, 1, 1, 1, 1, 1, 0.998381, 0.999978, 1, 1, 1, 1, 1, 1, 1, 1, 1, 1, 1, 1, 1, 1, 1, 1, 1, 1
327, 0.348072, 1, 1, 0.93309, 0.998345, 1, 1, 0.433084, 0.862758, 1, 0.979383, 1, 1, 1, 1, 1, 1, 1, 0.998361, 0.999984, 1, 1, 1, 1, 1, 1, 1, 1, 1, 1, 1, 1, 1, 1, 1, 1, 1, 1
328, 0.353081, 1, 1, 0.936033, 0.998317, 1, 1, 0.43779, 0.863032, 1, 0.979454, 1, 1, 1, 1, 1, 1, 1, 0.99833, 0.999988, 1, 1, 1, 1, 1, 1, 1, 1, 1, 1, 1, 1, 1, 1, 1, 1, 1, 1
329, 0.362405, 1, 1, 0.950235, 0.998274, 1, 1, 0.442468, 0.863307, 1, 0.979526, 1, 1, 1, 1, 1, 1, 1, 0.998283, 0.999991, 1, 1, 1, 1, 1, 1, 1, 1, 1, 1, 1, 1, 1, 1, 1, 1, 1, 1
330, 0.369612, 1, 1, 0.958938, 0.998251, 1, 1, 0.44712, 0.863581, 1, 0.979597, 1, 1, 1, 1, 1, 1, 1, 0.998257, 0.999994, 1, 1, 1, 1, 1, 1, 1, 1, 1, 1, 1, 1, 1, 1, 1, 1, 1, 1
331, 0.373215, 1, 1, 0.95805, 0.998231, 1, 1, 0.451743, 0.863852, 1, 0.979667, 1, 1, 1, 1, 1, 1, 1, 0.998236, 0.999996, 1, 1, 1, 1, 1, 1, 1, 1, 1, 1, 1, 1, 1, 1, 1, 1, 1, 1
332, 0.380645, 1, 1, 0.966985, 0.998146, 1, 1, 0.456339, 0.864121, 1, 0.979736, 1, 1, 1, 1, 1, 1, 1, 0.998149, 0.999998, 1, 1, 1, 1, 1, 1, 1, 1, 1, 1, 1, 1, 1, 1, 1, 1, 1, 1
333, 0.387294, 1, 1, 0.97399, 0.998078, 1, 1, 0.460906, 0.86439, 1, 0.979805, 1, 1, 1, 1, 1, 1, 1, 0.998081, 0.999998, 1, 1, 1, 1, 1, 1, 1, 1, 1, 1, 1, 1, 1, 1, 1, 1, 1, 1
334, 0.391618, 1, 0.999963, 0.974952, 0.998097, 1, 1, 0.465445, 0.864659, 1, 0.979872, 1, 1, 1, 1, 0.999963, 1, 1, 0.998099, 0.999998, 1, 1, 1, 1, 1, 1, 1, 1, 1, 1, 1, 1, 1, 1, 1, 1, 1, 1
335, 0.398351, 1, 0.99985, 0.981952, 0.99809, 1, 1, 0.469954, 0.86494, 1, 0.979938, 1, 1, 1, 1, 0.99985, 1, 1, 0.998091, 0.999999, 1, 1, 1, 1, 1, 1, 1, 1, 1, 1, 1, 1, 1, 1, 1, 1, 1, 1
336, 0.403919, 1, 0.99972, 0.986164, 0.998062, 1, 1, 0.474435, 0.865242, 1, 0.979998, 1, 1, 1, 1, 0.99972, 1, 1, 0.998063, 0.999999, 1, 1, 1, 1, 1, 1, 1, 1, 1, 1, 1, 1, 1, 1, 1, 1, 1, 1
337, 0.406782, 1, 0.999648, 0.983655, 0.998047, 1, 1, 0.478887, 0.865555, 1, 0.980057, 1, 1, 1, 1, 0.999648, 1, 1, 0.998048, 1, 1, 1, 1, 1, 1, 1, 1, 1, 1, 1, 1, 1, 1, 1, 1, 1, 1, 1
338, 0.411538, 1, 0.999603, 0.985762, 0.997965, 1, 1, 0.483308, 0.865871, 1, 0.980115, 1, 1, 1, 1, 0.999603, 1, 1, 0.997965, 1, 1, 1, 1, 1, 1, 1, 1, 1, 1, 1, 1, 1, 1, 1, 1, 1, 1, 1
339, 0.417351, 1, 0.99952, 0.990526, 0.997859, 1, 1, 0.4877, 0.866189, 1, 0.980171, 1, 1, 1, 1, 0.99952, 1, 1, 0.997859, 1, 1, 1, 1, 1, 1, 1, 1, 1, 1, 1, 1, 1, 1, 1, 1, 1, 1, 1
340, 0.421526, 1, 0.999358, 0.991439, 0.997795, 1, 1, 0.492062, 0.866521, 1, 0.980226, 1, 1, 1, 1, 0.999358, 1, 1, 0.997795, 1, 1, 1, 1, 1, 1, 1, 1, 1, 1, 1, 1, 1, 1, 1, 1, 1, 1, 1
341, 0.425807, 1, 0.999092, 0.992639, 0.997769, 1, 1, 0.496394, 0.866865, 1, 0.980276, 1, 1, 1, 1, 0.999092, 1, 1, 0.997769, 1, 1, 1, 1, 1, 1, 1, 1, 1, 1, 1, 1, 1, 1, 1, 1, 1, 1, 1
342, 0.43072, 1, 0.998765, 0.995336, 0.997829, 1, 1, 0.500695, 0.867215, 1, 0.980324, 1, 1, 1, 1, 0.998765, 1, 1, 0.997829, 1, 1, 1, 1, 1, 1, 1, 1, 1, 1, 1, 1, 1, 1, 1, 1, 1, 1, 1
343, 0.434477, 1, 0.998518, 0.995335, 0.997887, 1, 1, 0.504966, 0.867566, 1, 0.980374, 1, 1, 1, 1, 0.998518, 1, 1, 0.997887, 0.999999, 1, 1, 1, 1, 1, 1, 1, 1, 1, 1, 1, 1, 1, 1, 1, 1, 1, 1
344, 0.437728, 1, 0.998543, 0.994044, 0.99784, 1, 1, 0.509207, 0.867916, 1, 0.980423, 1, 1, 1, 1, 0.998543, 1, 1, 0.99784, 0.999999, 1, 1, 1, 1, 1, 1, 1, 1, 1, 1, 1, 1, 1, 1, 1, 1, 1, 1
345, 0.44214, 1, 0.998882, 0.995169, 0.997744, 1, 1, 0.513416, 0.868265, 1, 0.980472, 1, 1, 1, 1, 0.998882, 1, 1, 0.997744, 1, 1, 1, 1, 1, 1, 1, 1, 1, 1, 1, 1, 1, 1, 1, 1, 1, 1, 1
346, 0.447027, 1, 0.999311, 0.99732, 0.99765, 1, 1, 0.517595, 0.86861, 1, 0.980521, 1, 1, 1, 1, 0.999311, 1, 1, 0.99765, 1, 1, 1, 1, 1, 1, 1, 1, 1, 1, 1, 1, 1, 1, 1, 1, 1, 1, 1
347, 0.451277, 1, 0.999598, 0.99823, 0.997548, 1, 1, 0.521743, 0.868952, 1, 0.980568, 1, 1, 1, 1, 0.999598, 1, 1, 0.997548, 1, 1, 1, 1, 1, 1, 1, 1, 1, 1, 1, 1, 1, 1, 1, 1, 1, 1, 1
348, 0.455212, 1, 0.999725, 0.998606, 0.997471, 1, 1, 0.52586, 0.869294, 1, 0.980616, 1, 1, 1, 1, 0.999725, 1, 1, 0.997471, 1, 1, 1, 1, 1, 1, 1, 1, 1, 1, 1, 1, 1, 1, 1, 1, 1, 1, 1
349, 0.459202, 1, 0.999751, 0.999107, 0.997537, 1, 1, 0.529946, 0.869636, 1, 0.980664, 1, 1, 1, 1, 0.999751, 1, 1, 0.997537, 1, 1, 1, 1, 1, 1, 1, 1, 1, 1, 1, 1, 1, 1, 1, 1, 1, 1, 1
350, 0.463013, 1, 0.999724, 0.999309, 0.997618, 1, 1, 0.534001, 0.869974, 1, 0.980711, 1, 1, 1, 1, 0.999724, 1, 1, 0.997618, 0.999999, 1, 1, 1, 1, 1, 1, 1, 1, 1, 1, 1, 1, 1, 1, 1, 1, 1, 1
351, 0.466509, 1, 0.999672, 0.999015, 0.997597, 1, 1, 0.538025, 0.870309, 1, 0.980757, 1, 1, 1, 1, 0.999672, 1, 1, 0.997597, 0.999999, 1, 1, 1, 1, 1, 1, 1, 1, 1, 1, 1, 1, 1, 1, 1, 1, 1, 1
352, 0.470039, 1, 0.999594, 0.998838, 0.997612, 1, 1, 0.542018, 0.870641, 1, 0.980804, 1, 1, 1, 1, 0.999594, 1, 1, 0.997612, 1, 1, 1, 1, 1, 1, 1, 1, 1, 1, 1, 1, 1, 1, 1, 1, 1, 1, 1
353, 0.473765, 1, 0.999478, 0.999235, 0.997562, 1, 1, 0.54598, 0.870974, 1, 0.980851, 1, 1, 1, 1, 0.999478, 1, 1, 0.997563, 1, 1, 1, 1, 1, 1, 1, 1, 1, 1, 1, 1, 1, 1, 1, 1, 1, 1, 1
354, 0.477392, 1, 0.999315, 0.999663, 0.997373, 1, 1, 0.54991, 0.871305, 1, 0.980898, 1, 1, 1, 1, 0.999315, 1, 1, 0.997373, 0.999999, 1, 1, 1, 1, 1, 1, 1, 1, 1, 1, 1, 1, 1, 1, 1, 1, 1, 1
355, 0.480846, 1, 0.999051, 0.999743, 0.99732, 1, 1, 0.55381, 0.871634, 1, 0.980943, 1, 1, 1, 1, 0.999051, 1, 1, 0.99732, 1, 1, 1, 1, 1, 1, 1, 1, 1, 1, 1, 1, 1, 1, 1, 1, 1, 1, 1
356, 0.484137, 1, 0.998603, 0.999675, 0.997325, 1, 1, 0.557678, 0.87196, 1, 0.980989, 1, 1, 1, 1, 0.998603, 1, 1, 0.997325, 1, 1, 1, 1, 1, 1, 1, 1, 1, 1, 1, 1, 1, 1, 1, 1, 1, 1, 1
357, 0.48722, 1, 0.997884, 0.999607, 0.997233, 1, 1, 0.561516, 0.872285, 1, 0.981034, 1, 1, 1, 1, 0.997884, 1, 1, 0.997233, 1, 1, 1, 1, 1, 1, 1, 1, 1, 1, 1, 1, 1, 1, 1, 1, 1, 1, 1
358, 0.490249, 1, 0.996878, 0.99964, 0.997279, 1, 1, 0.565322, 0.872609, 1, 0.981079, 1, 1, 1, 1, 0.996878, 1, 1, 0.997279, 1, 1, 1, 1, 1, 1, 1, 1, 1, 1, 1, 1, 1, 1, 1, 1, 1, 1, 1
359, 0.493254, 1, 0.995774, 0.999692, 0.997418, 1, 1, 0.569098, 0.872934, 1, 0.981125, 1, 1, 1, 1, 0.995774, 1, 1, 0.997419, 1, 1, 1, 1, 1, 1, 1, 1, 1, 1, 1, 1, 1, 1, 1, 1, 1, 1, 1
360, 0.496301, 1, 0.995028, 0.999695, 0.997394, 1, 1, 0.572843, 0.873254, 1, 0.98117, 1, 1, 1, 1, 0.995028, 1, 1, 0.997394, 1, 1, 1, 1, 1, 1, 1, 1, 1, 1, 1, 1, 1, 1, 1, 1, 1, 1, 1
361, 0.499761, 1, 0.995217, 0.999732, 0.997283, 1, 1, 0.576557, 0.873572, 1, 0.981214, 1, 1, 1, 1, 0.995217, 1, 1, 0.997283, 1, 1, 1, 1, 1, 1, 1, 1, 1, 1, 1, 1, 1, 1, 1, 1, 1, 1, 1
362, 0.503782, 1, 0.996441, 0.999809, 0.997255, 1, 1, 0.58024, 0.873888, 1, 0.981259, 1, 1, 1, 1, 0.996441, 1, 1, 0.997255, 1, 1, 1, 1, 1, 1, 1, 1, 1, 1, 1, 1, 1, 1, 1, 1, 1, 1, 1
363, 0.507941, 1, 0.99795, 0.999873, 0.997265, 1, 1, 0.583892, 0.874205, 1, 0.981303, 1, 1, 1, 1, 0.99795, 1, 1, 0.997266, 0.999999, 1, 1, 1, 1, 1, 1, 1, 1, 1, 1, 1, 1, 1, 1, 1, 1, 1, 1
364, 0.511776, 1, 0.999001, 0.999897, 0.99717, 1, 1, 0.587514, 0.87452, 1, 0.981347, 1, 1, 1, 1, 0.999001, 1, 1, 0.99717, 1, 1, 1, 1, 1, 1, 1, 1, 1, 1, 1, 1, 1, 1, 1, 1, 1, 1, 1
365, 0.515307, 1, 0.999536, 0.999916, 0.997039, 1, 1, 0.591106, 0.874834, 1, 0.981391, 1, 1, 1, 1, 0.999536, 1, 1, 0.99704, 1, 1, 1, 1, 1, 1, 1, 1, 1, 1, 1, 1, 1, 1, 1, 1, 1, 1, 1
366, 0.518759, 1, 0.999779, 0.999967, 0.997063, 1, 1, 0.594667, 0.875143, 1, 0.981435, 1, 1, 1, 1, 0.999779, 1, 1, 0.997063, 1, 1, 1, 1, 1, 1, 1, 1, 1, 1, 1, 1, 1, 1, 1, 1, 1, 1, 1
367, 0.522125, 1, 0.999881, 0.999998, 0.997126, 1, 1, 0.598198, 0.875452, 1, 0.981478, 1, 1, 1, 1, 0.999881, 1, 1, 0.997126, 1, 1, 1, 1, 1, 1, 1, 1, 1, 1, 1, 1, 1, 1, 1, 1, 1, 1, 1
368, 0.525385, 1, 0.999916, 1, 0.997126, 1, 1, 0.601698, 0.875759, 1, 0.98152, 1, 1, 1, 1, 0.999916, 1, 1, 0.997127, 1, 1, 1, 1, 1, 1, 1, 1, 1, 1, 1, 1, 1, 1, 1, 1, 1, 1, 1
369, 0.528614, 1, 0.999922, 1, 0.997143, 1, 1, 0.605169, 0.876066, 1, 0.981563, 1, 1, 1, 1, 0.999922, 1, 1, 0.997144, 1, 1, 1, 1, 1, 1, 1, 1, 1, 1, 1, 1, 1, 1, 1, 1, 1, 1, 1
370, 0.531813, 1, 0.999922, 1, 0.99716, 1, 1, 0.60861, 0.876372, 1, 0.981606, 1, 1, 1, 1, 0.999922, 1, 1, 0.99716, 0.999999, 1, 1, 1, 1, 1, 1, 1, 1, 1, 1, 1, 1, 1, 1, 1, 1, 1, 1
371, 0.534933, 1, 0.999923, 1, 0.997075, 1, 1, 0.612021, 0.876674, 1, 0.981648, 1, 1, 1, 1, 0.999923, 1, 1, 0.997075, 1, 1, 1, 1, 1, 1, 1, 1, 1, 1, 1, 1, 1, 1, 1, 1, 1, 1, 1
372, 0.538008, 1, 0.999921, 1, 0.996956, 1, 1, 0.615402, 0.876976, 1, 0.981691, 1, 1, 1, 1, 0.999921, 1, 1, 0.996956, 1, 1, 1, 1, 1, 1, 1, 1, 1, 1, 1, 1, 1, 1, 1, 1, 1, 1, 1
373, 0.54114, 1, 0.999909, 1, 0.996998, 1, 1, 0.618755, 0.877277, 1, 0.981733, 1, 1, 1, 1, 0.999909, 1, 1, 0.996998, 1, 1, 1, 1, 1, 1, 1, 1, 1, 1, 1, 1, 1, 1, 1, 1, 1, 1, 1
374, 0.544252, 1, 0.999864, 1, 0.997078, 1, 1, 0.622077, 0.877577, 1, 0.981775, 1, 1, 1, 1, 0.999864, 1, 1, 0.997079, 1, 1, 1, 1, 1, 1, 1, 1, 1, 1, 1, 1, 1, 1, 1, 1, 1, 1, 1
375, 0.547197, 1, 0.999754, 1, 0.996966, 1, 1, 0.62537, 0.877876, 1, 0.981817, 1, 1, 1, 1, 0.999754, 1, 1, 0.996967, 0.999999, 1, 1, 1, 1, 1, 1, 1, 1, 1, 1, 1, 1, 1, 1, 1, 1, 1, 1
376, 0.550023, 1, 0.999502, 1, 0.996829, 1, 1, 0.628634, 0.878171, 1, 0.981858, 1, 1, 1, 1, 0.999502, 1, 1, 0.99683, 1, 1, 1, 1, 1, 1, 1, 1, 1, 1, 1, 1, 1, 1, 1, 1, 1, 1, 1
377, 0.552824, 1, 0.999006, 1, 0.996937, 1, 1, 0.631869, 0.878463, 1, 0.981899, 1, 1, 1, 1, 0.999006, 1, 1, 0.996937, 1, 1, 1, 1, 1, 1, 1, 1, 1, 1, 1, 1, 1, 1, 1, 1, 1, 1, 1
378, 0.555471, 1, 0.998261, 1, 0.997067, 1, 1, 0.635076, 0.878755, 1, 0.98194, 1, 1, 1, 1, 0.998261, 1, 1, 0.997067, 1, 1, 1, 1, 1, 1, 1, 1, 1, 1, 1, 1, 1, 1, 1, 1, 1, 1, 1
379, 0.557942, 1, 0.997502, 1, 0.996943, 1, 1, 0.638254, 0.879047, 1, 0.981981, 1, 1, 1, 1, 0.997502, 1, 1, 0.996943, 1, 1, 1, 1, 1, 1, 1, 1, 1, 1, 1, 1, 1, 1, 1, 1, 1, 1, 1
380, 0.560596, 1, 0.997149, 1, 0.996784, 1, 1, 0.641404, 0.879339, 1, 0.982022, 1, 1, 1, 1, 0.997149, 1, 1, 0.996784, 1, 1, 1, 1, 1, 1, 1, 1, 1, 1, 1, 1, 1, 1, 1, 1, 1, 1, 1
381, 0.563705, 1, 0.997459, 1, 0.99682, 1, 1, 0.644525, 0.879627, 1, 0.982062, 1, 1, 1, 1, 0.997459, 1, 1, 0.99682, 1, 1, 1, 1, 1, 1, 1, 1, 1, 1, 1, 1, 1, 1, 1, 1, 1, 1, 1
382, 0.56709, 1, 0.998213, 1, 0.996937, 1, 1, 0.647618, 0.879912, 1, 0.982103, 1, 1, 1, 1, 0.998213, 1, 1, 0.996937, 1, 1, 1, 1, 1, 1, 1, 1, 1, 1, 1, 1, 1, 1, 1, 1, 1, 1, 1
383, 0.570396, 1, 0.998967, 1, 0.996949, 1, 1, 0.650684, 0.880198, 1, 0.982143, 1, 1, 1, 1, 0.998967, 1, 1, 0.99695, 0.999999, 1, 1, 1, 1, 1, 1, 1, 1, 1, 1, 1, 1, 1, 1, 1, 1, 1, 1
384, 0.573475, 1, 0.99947, 1, 0.99685, 1, 1, 0.653722, 0.880483, 1, 0.982183, 1, 1, 1, 1, 0.99947, 1, 1, 0.99685, 1, 1, 1, 1, 1, 1, 1, 1, 1, 1, 1, 1, 1, 1, 1, 1, 1, 1, 1
385, 0.576434, 1, 0.999738, 1, 0.996815, 1, 1, 0.656732, 0.880766, 1, 0.982223, 1, 1, 1, 1, 0.999738, 1, 1, 0.996815, 1, 1, 1, 1, 1, 1, 1, 1, 1, 1, 1, 1, 1, 1, 1, 1, 1, 1, 1
386, 0.579341, 1, 0.999864, 1, 0.996869, 1, 1, 0.659715, 0.881046, 1, 0.982262, 1, 1, 1, 1, 0.999864, 1, 1, 0.99687, 1, 1, 1, 1, 1, 1, 1, 1, 1, 1, 1, 1, 1, 1, 1, 1, 1, 1, 1
387, 0.582146, 1, 0.999912, 1, 0.996865, 1, 1, 0.66267, 0.881325, 1, 0.982301, 1, 1, 1, 1, 0.999912, 1, 1, 0.996866, 1, 1, 1, 1, 1, 1, 1, 1, 1, 1, 1, 1, 1, 1, 1, 1, 1, 1, 1
388, 0.584875, 0.999999, 0.999923, 1, 0.996806, 1, 1, 0.665599, 0.881604, 1, 0.98234, 1, 1, 1, 1, 0.999923, 1, 1, 0.996806, 1, 1, 1, 1, 1, 1, 1, 1, 1, 1, 1, 1, 1, 1, 1, 1, 1, 1, 1
389, 0.587582, 0.999989, 0.999923, 1, 0.996766, 1, 1, 0.668501, 0.881883, 1, 0.982379, 1, 1, 1, 1, 0.999923, 1, 1, 0.996766, 1, 1, 1, 1, 1, 1, 1, 1, 1, 1, 1, 1, 1, 1, 1, 1, 1, 1, 1
390, 0.590281, 0.99997, 0.999934, 1, 0.996751, 1, 1, 0.671375, 0.88216, 1, 0.982418, 1, 1, 1, 1, 0.999934, 1, 1, 0.996751, 1, 1, 1, 1, 1, 1, 1, 1, 1, 1, 1, 1, 1, 1, 1, 1, 1, 1, 1
391, 0.59296, 0.999958, 0.999962, 1, 0.996718, 1, 1, 0.674225, 0.882434, 1, 0.982456, 1, 1, 1, 1, 0.999962, 1, 1, 0.996719, 1, 1, 1, 1, 1, 1, 1, 1, 1, 1, 1, 1, 1, 1, 1, 1, 1, 1, 1
392, 0.595658, 0.999962, 0.99999, 1, 0.99674, 1, 1, 0.677047, 0.882707, 1, 0.982495, 1, 1, 1, 1, 0.99999, 1, 1, 0.99674, 1, 1, 1, 1, 1, 1, 1, 1, 1, 1, 1, 1, 1, 1, 1, 1, 1, 1, 1
393, 0.5984, 0.999972, 1, 1, 0.996883, 1, 1, 0.679843, 0.882979, 1, 0.982533, 1, 1, 1, 1, 1, 1, 1, 0.996883, 1, 1, 1, 1, 1, 1, 1, 1, 1, 1, 1, 1, 1, 1, 1, 1, 1, 1, 1
394, 0.601069, 0.999982, 1, 1, 0.996947, 1, 1, 0.682614, 0.883252, 1, 0.982571, 1, 1, 1, 1, 1, 1, 1, 0.996947, 1, 1, 1, 1, 1, 1, 1, 1, 1, 1, 1, 1, 1, 1, 1, 1, 1, 1, 1
395, 0.603604, 0.99997, 1, 1, 0.996847, 1, 1, 0.68536, 0.883523, 1, 0.98261, 1, 1, 1, 1, 1, 1, 1, 0.996847, 1, 1, 1, 1, 1, 1, 1, 1, 1, 1, 1, 1, 1, 1, 1, 1, 1, 1, 1
396, 0.606104, 0.999871, 1, 1, 0.996816, 1, 1, 0.688078, 0.883792, 1, 0.982647, 1, 1, 1, 1, 1, 1, 1, 0.996816, 1, 1, 1, 1, 1, 1, 1, 1, 1, 1, 1, 1, 1, 1, 1, 1, 1, 1, 1
397, 0.608577, 0.999734, 1, 1, 0.996816, 1, 1, 0.690773, 0.884059, 1, 0.982685, 1, 1, 1, 1, 1, 1, 1, 0.996816, 1, 1, 1, 1, 1, 1, 1, 1, 1, 1, 1, 1, 1, 1, 1, 1, 1, 1, 1
398, 0.611037, 0.999701, 1, 1, 0.996725, 1, 1, 0.693442, 0.884325, 1, 0.982722, 1, 1, 1, 1, 1, 1, 1, 0.996725, 1, 1, 1, 1, 1, 1, 1, 1, 1, 1, 1, 1, 1, 1, 1, 1, 1, 1, 1
399, 0.613526, 0.999743, 0.999988, 1, 0.996654, 1, 1, 0.696086, 0.88459, 1, 0.982759, 1, 1, 1, 1, 0.999988, 1, 1, 0.996654, 1, 1, 1, 1, 1, 1, 1, 1, 1, 1, 1, 1, 1, 1, 1, 1, 1, 1, 1
400, 0.61599, 0.999801, 0.999959, 1, 0.99658, 1, 1, 0.698706, 0.884855, 1, 0.982797, 1, 1, 1, 1, 0.999959, 1, 1, 0.99658, 1, 1, 1, 1, 1, 1, 1, 1, 1, 1, 1, 1, 1, 1, 1, 1, 1, 1, 1
401, 0.618519, 0.999875, 0.999935, 1, 0.996624, 1, 1, 0.701301, 0.885116, 1, 0.982834, 1, 1, 1, 1, 0.999935, 1, 1, 0.996624, 1, 1, 1, 1, 1, 1, 1, 1, 1, 1, 1, 1, 1, 1, 1, 1, 1, 1, 1
402, 0.62114, 0.999928, 0.999926, 1, 0.996852, 1, 1, 0.703871, 0.885376, 1, 0.98287, 1, 1, 1, 1, 0.999926, 1, 1, 0.996852, 1, 1, 1, 1, 1, 1, 1, 1, 1, 1, 1, 1, 1, 1, 1, 1, 1, 1, 1
403, 0.623656, 0.999957, 0.999924, 1, 0.996964, 1, 1, 0.706418, 0.885636, 1, 0.982906, 1, 1, 1, 1, 0.999924, 1, 1, 0.996964, 1, 1, 1, 1, 1, 1, 1, 1, 1, 1, 1, 1, 1, 1, 1, 1, 1, 1, 1
404, 0.626, 0.999974, 0.999923, 1, 0.996843, 1, 1, 0.708941, 0.885896, 1, 0.982943, 1, 1, 1, 1, 0.999923, 1, 1, 0.996843, 1, 1, 1, 1, 1, 1, 1, 1, 1, 1, 1, 1, 1, 1, 1, 1, 1, 1, 1
405, 0.628355, 0.999984, 0.999923, 1, 0.996777, 1, 1, 0.71144, 0.886153, 1, 0.982979, 1, 1, 1, 1, 0.999923, 1, 1, 0.996777, 1, 1, 1, 1, 1, 1, 1, 1, 1, 1, 1, 1, 1, 1, 1, 1, 1, 1, 1
406, 0.630854, 0.999992, 0.999937, 0.999997, 0.996966, 1, 1, 0.713915, 0.886408, 1, 0.983015, 1, 1, 1, 1, 0.999937, 1, 1, 0.996966, 1, 1, 1, 1, 1, 1, 1, 1, 1, 1, 1, 1, 1, 1, 1, 1, 1, 1, 1
407, 0.633262, 0.999996, 0.99997, 0.999982, 0.997039, 1, 1, 0.716368, 0.886662, 1, 0.983051, 1, 1, 1, 1, 0.99997, 1, 1, 0.997039, 1, 1, 1, 1, 1, 1, 1, 1, 1, 1, 1, 1, 1, 1, 1, 1, 1, 1, 1
