case index 2 = {
num freq, 1701
num column, 38
Waveln,  combin,  H2O,  umix,  O3,  trace,  N2,  H2Ocnt,  molec,  aercld,  HNO3,  aercld,  CO2,  CO,  CH4,  N2O,  O2,  NH3,  NO,  NO2,  SO2,  cloud,  F11,  F12,  CCl3F,  CF4,  F22,  F113,  F114,  R115,  ClONO2,  HNO4,  CHCl2F,  CCl4,  N2O5,  H2-H2,  H2-HE,  H2-CH4,  CH4-CH4
  [nm],  trans,  trans,  trans,  trans,  trans,  trans,  trans,  scat,  trans,  trans,  abtrns,  trans,  trans,  trans,  trans,  trans,  trans,  trans,  trans,  trans,  trans,  trans,  trans,  trans,  trans,  trans,  trans,  trans,  trans,  trans,  trans,  trans,  trans,  trans,  trans,  trans,  trans,  trans
300, 0.0120992, 1, 1, 0.0414845, 0.997396, 1, 1, 0.289928, 1, 1, 1, 1, 1, 1, 1, 1, 1, 1, 0.999256, 0.99814, 1, 1, 1, 1, 1, 1, 1, 1, 1, 1, 1, 1, 1, 1, 1, 1, 1, 1
301, 0.0183391, 1, 1, 0.0618362, 0.997631, 1, 1, 0.295091, 1, 1, 1, 1, 1, 1, 1, 1, 1, 1, 0.999233, 0.998396, 1, 1, 1, 1, 1, 1, 1, 1, 1, 1, 1, 1, 1, 1, 1, 1, 1, 1
302, 0.0264404, 1, 1, 0.0877049, 0.997707, 1, 1, 0.300249, 1, 1, 1, 1, 1, 1, 1, 1, 1, 1, 0.999186, 0.99852, 1, 1, 1, 1, 1, 1, 1, 1, 1, 1, 1, 1, 1, 1, 1, 1, 1, 1
303, 0.0364989, 1, 1, 0.119128, 0.997822, 1, 1, 0.305403, 1, 1, 1, 1, 1, 1, 1, 1, 1, 1, 0.999133, 0.998687, 1, 1, 1, 1, 1, 1, 1, 1, 1, 1, 1, 1, 1, 1, 1, 1, 1, 1
304, 0.0484275, 1, 1, 0.155532, 0.997865, 1, 1, 0.31055, 1, 1, 1, 1, 1, 1, 1, 1, 1, 1, 0.999098, 0.998766, 1, 1, 1, 1, 1, 1, 1, 1, 1, 1, 1, 1, 1, 1, 1, 1, 1, 1
305, 0.0622388, 1, 1, 0.196768, 0.997965, 1, 1, 0.315689, 1, 1, 1, 1, 1, 1, 1, 1, 1, 1, 0.999078, 0.998886, 1, 1, 1, 1, 1, 1, 1, 1, 1, 1, 1, 1, 1, 1, 1, 1, 1, 1
306, 0.0776986, 1, 1, 0.241811, 0.998004, 1, 1, 0.320821, 1, 1, 1, 1, 1, 1, 1, 1, 1, 1, 0.999063, 0.99894, 1, 1, 1, 1, 1, 1, 1, 1, 1, 1, 1, 1, 1, 1, 1, 1, 1, 1
307, 0.0944969, 1, 1, 0.289627, 0.99806, 1, 1, 0.325943, 1, 1, 1, 1, 1, 1, 1, 1, 1, 1, 0.999039, 0.999023, 1, 1, 1, 1, 1, 1, 1, 1, 1, 1, 1, 1, 1, 1, 1, 1, 1, 1
308, 0.112348, 1, 1, 0.339129, 0.998108, 1, 1, 0.331053, 1, 1, 1, 1, 1, 1, 1, 1, 1, 1, 0.999003, 0.999104, 1, 1, 1, 1, 1, 1, 1, 1, 1, 1, 1, 1, 1, 1, 1, 1, 1, 1
309, 0.130899, 1, 1, 0.389268, 0.998148, 1, 1, 0.336152, 1, 1, 1, 1, 1, 1, 1, 1, 1, 1, 0.998956, 0.999192, 1, 1, 1, 1, 1, 1, 1, 1, 1, 1, 1, 1, 1, 1, 1, 1, 1, 1
310, 0.149856, 1, 1, 0.439123, 0.998191, 1, 1, 0.341239, 1, 1, 1, 1, 1, 1, 1, 1, 1, 1, 0.998912, 0.999278, 1, 1, 1, 1, 1, 1, 1, 1, 1, 1, 1, 1, 1, 1, 1, 1, 1, 1
311, 0.169036, 1, 1, 0.488162, 0.998239, 1, 1, 0.346311, 1, 1, 1, 1, 1, 1, 1, 1, 1, 1, 0.998872, 0.999366, 1, 1, 1, 1, 1, 1, 1, 1, 1, 1, 1, 1, 1, 1, 1, 1, 1, 1
312, 0.187904, 1, 1, 0.534942, 0.998307, 1, 1, 0.351369, 1, 1, 1, 1, 1, 1, 1, 1, 1, 1, 0.998845, 0.999462, 1, 1, 1, 1, 1, 1, 1, 1, 1, 1, 1, 1, 1, 1, 1, 1, 1, 1
313, 0.2071, 1, 1, 0.581309, 0.99835, 1, 1, 0.356411, 1, 1, 1, 1, 1, 1, 1, 1, 1, 1, 0.998816, 0.999533, 1, 1, 1, 1, 1, 1, 1, 1, 1, 1, 1, 1, 1, 1, 1, 1, 1, 1
314, 0.225028, 1, 1, 0.622968, 0.998395, 1, 1, 0.361437, 1, 1, 1, 1, 1, 1, 1, 1, 1, 1, 0.998789, 0.999605, 1, 1, 1, 1, 1, 1, 1, 1, 1, 1, 1, 1, 1, 1, 1, 1, 1, 1
315, 0.243016, 1, 1, 0.663633, 0.998407, 1, 1, 0.366446, 1, 1, 1, 1, 1, 1, 1, 1, 1, 1, 0.998752, 0.999656, 1, 1, 1, 1, 1, 1, 1, 1, 1, 1, 1, 1, 1, 1, 1, 1, 1, 1
316, 0.259119, 1, 1, 0.698234, 0.99841, 1, 1, 0.371436, 1, 1, 1, 1, 1, 1, 1, 1, 1, 1, 0.998706, 0.999703, 1, 1, 1, 1, 1, 1, 1, 1, 1, 1, 1, 1, 1, 1, 1, 1, 1, 1
317, 0.275599, 1, 1, 0.732859, 0.998396, 1, 1, 0.376408, 1, 1, 1, 1, 1, 1, 1, 1, 1, 1, 0.998652, 0.999742, 1, 1, 1, 1, 1, 1, 1, 1, 1, 1, 1, 1, 1, 1, 1, 1, 1, 1
318, 0.29092, 1, 1, 0.763628, 0.998394, 1, 1, 0.38136, 1, 1, 1, 1, 1, 1, 1, 1, 1, 1, 0.998603, 0.99979, 1, 1, 1, 1, 1, 1, 1, 1, 1, 1, 1, 1, 1, 1, 1, 1, 1, 1
319, 0.306476, 1, 1, 0.794255, 0.998402, 1, 1, 0.386292, 1, 1, 1, 1, 1, 1, 1, 1, 1, 1, 0.998568, 0.999835, 1, 1, 1, 1, 1, 1, 1, 1, 1, 1, 1, 1, 1, 1, 1, 1, 1, 1
320, 0.320326, 1, 1, 0.819764, 0.998408, 1, 1, 0.391203, 1, 1, 1, 1, 1, 1, 1, 1, 1, 1, 0.99854, 0.999869, 1, 1, 1, 1, 1, 1, 1, 1, 1, 1, 1, 1, 1, 1, 1, 1, 1, 1
321, 0.333392, 1, 1, 0.842789, 0.998411, 1, 1, 0.396092, 1, 1, 1, 1, 1, 1, 1, 1, 1, 1, 0.998513, 0.999897, 1, 1, 1, 1, 1, 1, 1, 1, 1, 1, 1, 1, 1, 1, 1, 1, 1, 1
322, 0.344745, 1, 1, 0.860933, 0.998405, 1, 1, 0.400959, 1, 1, 1, 1, 1, 1, 1, 1, 1, 1, 0.998482, 0.999923, 1, 1, 1, 1, 1, 1, 1, 1, 1, 1, 1, 1, 1, 1, 1, 1, 1, 1
323, 0.356335, 1, 1, 0.879271, 0.998391, 1, 1, 0.405803, 1, 1, 1, 1, 1, 1, 1, 1, 1, 1, 0.998447, 0.999944, 1, 1, 1, 1, 1, 1, 1, 1, 1, 1, 1, 1, 1, 1, 1, 1, 1, 1
324, 0.367305, 1, 1, 0.895766, 0.99837, 1, 1, 0.410624, 1, 1, 1, 1, 1, 1, 1, 1, 1, 1, 0.998411, 0.999959, 1, 1, 1, 1, 1, 1, 1, 1, 1, 1, 1, 1, 1, 1, 1, 1, 1, 1
325, 0.377091, 1, 1, 0.909095, 0.998344, 1, 1, 0.415421, 1, 1, 1, 1, 1, 1, 1, 1, 1, 1, 0.998374, 0.99997, 1, 1, 1, 1, 1, 1, 1, 1, 1, 1, 1, 1, 1, 1, 1, 1, 1, 1
326, 0.386553, 1, 1, 0.921331, 0.998317, 1, 1, 0.420193, 1, 1, 1, 1, 1, 1, 1, 1, 1, 1, 0.998339, 0.999977, 1, 1, 1, 1, 1, 1, 1, 1, 1, 1, 1, 1, 1, 1, 1, 1, 1, 1
327, 0.395358, 1, 1, 0.931861, 0.998294, 1, 1, 0.424941, 1, 1, 1, 1, 1, 1, 1, 1, 1, 1, 0.998311, 0.999983, 1, 1, 1, 1, 1, 1, 1, 1, 1, 1, 1, 1, 1, 1, 1, 1, 1, 1
328, 0.403534, 1, 1, 0.940719, 0.998265, 1, 1, 0.429663, 1, 1, 1, 1, 1, 1, 1, 1, 1, 1, 0.998277, 0.999988, 1, 1, 1, 1, 1, 1, 1, 1, 1, 1, 1, 1, 1, 1, 1, 1, 1, 1
329, 0.412038, 1, 1, 0.950166, 0.998232, 1, 1, 0.434359, 1, 1, 1, 1, 1, 1, 1, 1, 1, 1, 0.998241, 0.999991, 1, 1, 1, 1, 1, 1, 1, 1, 1, 1, 1, 1, 1, 1, 1, 1, 1, 1
330, 0.419515, 1, 1, 0.957219, 0.998205, 1, 1, 0.439029, 1, 1, 1, 1, 1, 1, 1, 1, 1, 1, 0.998211, 0.999994, 1, 1, 1, 1, 1, 1, 1, 1, 1, 1, 1, 1, 1, 1, 1, 1, 1, 1
331, 0.426022, 1, 1, 0.961946, 0.99816, 1, 1, 0.443673, 1, 1, 1, 1, 1, 1, 1, 1, 1, 1, 0.998165, 0.999995, 1, 1, 1, 1, 1, 1, 1, 1, 1, 1, 1, 1, 1, 1, 1, 1, 1, 1
332, 0.432788, 1, 1, 0.967175, 0.998102, 1, 1, 0.448289, 1, 1, 1, 1, 1, 1, 1, 1, 1, 1, 0.998105, 0.999998, 1, 1, 1, 1, 1, 1, 1, 1, 1, 1, 1, 1, 1, 1, 1, 1, 1, 1
333, 0.439831, 1, 0.999992, 0.973056, 0.998043, 1, 1, 0.452878, 1, 1, 1, 1, 1, 1, 1, 0.999992, 1, 1, 0.998045, 0.999998, 1, 1, 1, 1, 1, 1, 1, 1, 1, 1, 1, 1, 1, 1, 1, 1, 1, 1
334, 0.446174, 1, 0.999943, 0.977309, 0.998039, 1, 1, 0.457439, 1, 1, 1, 1, 1, 1, 1, 0.999943, 1, 1, 0.998041, 0.999998, 1, 1, 1, 1, 1, 1, 1, 1, 1, 1, 1, 1, 1, 1, 1, 1, 1, 1
335, 0.452628, 1, 0.999845, 0.981804, 0.998027, 1, 1, 0.461972, 1, 1, 1, 1, 1, 1, 1, 0.999845, 1, 1, 0.998028, 0.999999, 1, 1, 1, 1, 1, 1, 1, 1, 1, 1, 1, 1, 1, 1, 1, 1, 1, 1
336, 0.458271, 1, 0.999734, 0.984615, 0.998016, 1, 1, 0.466477, 1, 1, 1, 1, 1, 1, 1, 0.999734, 1, 1, 0.998017, 1, 1, 1, 1, 1, 1, 1, 1, 1, 1, 1, 1, 1, 1, 1, 1, 1, 1, 1
337, 0.462913, 1, 0.999652, 0.985275, 0.997971, 1, 1, 0.470953, 1, 1, 1, 1, 1, 1, 1, 0.999652, 1, 1, 0.997971, 0.999999, 1, 1, 1, 1, 1, 1, 1, 1, 1, 1, 1, 1, 1, 1, 1, 1, 1, 1
338, 0.467952, 1, 0.999592, 0.986769, 0.997902, 1, 1, 0.475401, 1, 1, 1, 1, 1, 1, 1, 0.999592, 1, 1, 0.997902, 1, 1, 1, 1, 1, 1, 1, 1, 1, 1, 1, 1, 1, 1, 1, 1, 1, 1, 1
339, 0.473602, 1, 0.9995, 0.989677, 0.997809, 1, 1, 0.47982, 1, 1, 1, 1, 1, 1, 1, 0.9995, 1, 1, 0.997809, 1, 1, 1, 1, 1, 1, 1, 1, 1, 1, 1, 1, 1, 1, 1, 1, 1, 1, 1
340, 0.478845, 1, 0.999331, 0.991821, 0.997741, 1, 1, 0.484208, 1, 1, 1, 1, 1, 1, 1, 0.999331, 1, 1, 0.997741, 1, 1, 1, 1, 1, 1, 1, 1, 1, 1, 1, 1, 1, 1, 1, 1, 1, 1, 1
341, 0.483739, 1, 0.999073, 0.993275, 0.99773, 1, 1, 0.488568, 1, 1, 1, 1, 1, 1, 1, 0.999073, 1, 1, 0.99773, 1, 1, 1, 1, 1, 1, 1, 1, 1, 1, 1, 1, 1, 1, 1, 1, 1, 1, 1
342, 0.48861, 1, 0.998777, 0.994722, 0.997768, 1, 1, 0.492898, 1, 1, 1, 1, 1, 1, 1, 0.998777, 1, 1, 0.997768, 1, 1, 1, 1, 1, 1, 1, 1, 1, 1, 1, 1, 1, 1, 1, 1, 1, 1, 1
343, 0.493029, 1, 0.998578, 0.995226, 0.997798, 1, 1, 0.497198, 1, 1, 1, 1, 1, 1, 1, 0.998578, 1, 1, 0.997799, 1, 1, 1, 1, 1, 1, 1, 1, 1, 1, 1, 1, 1, 1, 1, 1, 1, 1, 1
344, 0.497059, 1, 0.998614, 0.994803, 0.997768, 1, 1, 0.501468, 1, 1, 1, 1, 1, 1, 1, 0.998614, 1, 1, 0.997768, 1, 1, 1, 1, 1, 1, 1, 1, 1, 1, 1, 1, 1, 1, 1, 1, 1, 1, 1
345, 0.50177, 1, 0.998899, 0.995596, 0.997681, 1, 1, 0.505709, 1, 1, 1, 1, 1, 1, 1, 0.998899, 1, 1, 0.997681, 1, 1, 1, 1, 1, 1, 1, 1, 1, 1, 1, 1, 1, 1, 1, 1, 1, 1, 1
346, 0.506811, 1, 0.999272, 0.997024, 0.997582, 1, 1, 0.509919, 1, 1, 1, 1, 1, 1, 1, 0.999272, 1, 1, 0.997582, 1, 1, 1, 1, 1, 1, 1, 1, 1, 1, 1, 1, 1, 1, 1, 1, 1, 1, 1
347, 0.511651, 1, 0.999558, 0.998187, 0.997482, 1, 1, 0.514098, 1, 1, 1, 1, 1, 1, 1, 0.999558, 1, 1, 0.997483, 1, 1, 1, 1, 1, 1, 1, 1, 1, 1, 1, 1, 1, 1, 1, 1, 1, 1, 1
348, 0.516079, 1, 0.999701, 0.998671, 0.997437, 1, 1, 0.518247, 1, 1, 1, 1, 1, 1, 1, 0.999701, 1, 1, 0.997437, 1, 1, 1, 1, 1, 1, 1, 1, 1, 1, 1, 1, 1, 1, 1, 1, 1, 1, 1
349, 0.520421, 1, 0.999738, 0.999061, 0.997471, 1, 1, 0.522366, 1, 1, 1, 1, 1, 1, 1, 0.999738, 1, 1, 0.997471, 1, 1, 1, 1, 1, 1, 1, 1, 1, 1, 1, 1, 1, 1, 1, 1, 1, 1, 1
350, 0.524576, 1, 0.999718, 0.999192, 0.99752, 1, 1, 0.526454, 1, 1, 1, 1, 1, 1, 1, 0.999718, 1, 1, 0.99752, 1, 1, 1, 1, 1, 1, 1, 1, 1, 1, 1, 1, 1, 1, 1, 1, 1, 1, 1
351, 0.528539, 1, 0.999664, 0.999073, 0.997544, 1, 1, 0.530511, 1, 1, 1, 1, 1, 1, 1, 0.999664, 1, 1, 0.997544, 1, 1, 1, 1, 1, 1, 1, 1, 1, 1, 1, 1, 1, 1, 1, 1, 1, 1, 1
352, 0.532462, 1, 0.999584, 0.999002, 0.997528, 1, 1, 0.534538, 1, 1, 1, 1, 1, 1, 1, 0.999584, 1, 1, 0.997528, 1, 1, 1, 1, 1, 1, 1, 1, 1, 1, 1, 1, 1, 1, 1, 1, 1, 1, 1
353, 0.536479, 1, 0.999466, 0.999259, 0.997455, 1, 1, 0.538534, 1, 1, 1, 1, 1, 1, 1, 0.999466, 1, 1, 0.997455, 1, 1, 1, 1, 1, 1, 1, 1, 1, 1, 1, 1, 1, 1, 1, 1, 1, 1, 1
354, 0.54044, 1, 0.999289, 0.999576, 0.997336, 1, 1, 0.542499, 1, 1, 1, 1, 1, 1, 1, 0.999289, 1, 1, 0.997337, 1, 1, 1, 1, 1, 1, 1, 1, 1, 1, 1, 1, 1, 1, 1, 1, 1, 1, 1
355, 0.544235, 1, 0.999005, 0.999711, 0.997261, 1, 1, 0.546434, 1, 1, 1, 1, 1, 1, 1, 0.999005, 1, 1, 0.997261, 1, 1, 1, 1, 1, 1, 1, 1, 1, 1, 1, 1, 1, 1, 1, 1, 1, 1, 1
356, 0.547825, 1, 0.998535, 0.999683, 0.99722, 1, 1, 0.550337, 1, 1, 1, 1, 1, 1, 1, 0.998535, 1, 1, 0.99722, 1, 1, 1, 1, 1, 1, 1, 1, 1, 1, 1, 1, 1, 1, 1, 1, 1, 1, 1
357, 0.551241, 1, 0.997807, 0.999641, 0.997193, 1, 1, 0.554211, 1, 1, 1, 1, 1, 1, 1, 0.997807, 1, 1, 0.997193, 1, 1, 1, 1, 1, 1, 1, 1, 1, 1, 1, 1, 1, 1, 1, 1, 1, 1, 1
358, 0.554552, 1, 0.996839, 0.999652, 0.997231, 1, 1, 0.558053, 1, 1, 1, 1, 1, 1, 1, 0.996839, 1, 1, 0.997231, 1, 1, 1, 1, 1, 1, 1, 1, 1, 1, 1, 1, 1, 1, 1, 1, 1, 1, 1
359, 0.557832, 1, 0.995836, 0.999683, 0.997297, 1, 1, 0.561865, 1, 1, 1, 1, 1, 1, 1, 0.995836, 1, 1, 0.997297, 1, 1, 1, 1, 1, 1, 1, 1, 1, 1, 1, 1, 1, 1, 1, 1, 1, 1, 1
360, 0.561266, 1, 0.995233, 0.99971, 0.997301, 1, 1, 0.565646, 1, 1, 1, 1, 1, 1, 1, 0.995233, 1, 1, 0.997302, 0.999999, 1, 1, 1, 1, 1, 1, 1, 1, 1, 1, 1, 1, 1, 1, 1, 1, 1, 1
361, 0.565095, 1, 0.99545, 0.999748, 0.997227, 1, 1, 0.569397, 1, 1, 1, 1, 1, 1, 1, 0.99545, 1, 1, 0.997227, 1, 1, 1, 1, 1, 1, 1, 1, 1, 1, 1, 1, 1, 1, 1, 1, 1, 1, 1
362, 0.569402, 1, 0.996494, 0.999811, 0.997191, 1, 1, 0.573117, 1, 1, 1, 1, 1, 1, 1, 0.996494, 1, 1, 0.997192, 1, 1, 1, 1, 1, 1, 1, 1, 1, 1, 1, 1, 1, 1, 1, 1, 1, 1, 1
363, 0.573844, 1, 0.997824, 0.999865, 0.997158, 1, 1, 0.576807, 1, 1, 1, 1, 1, 1, 1, 0.997824, 1, 1, 0.997158, 1, 1, 1, 1, 1, 1, 1, 1, 1, 1, 1, 1, 1, 1, 1, 1, 1, 1, 1
364, 0.578065, 1, 0.998875, 0.9999, 0.997081, 1, 1, 0.580467, 1, 1, 1, 1, 1, 1, 1, 0.998875, 1, 1, 0.997081, 1, 1, 1, 1, 1, 1, 1, 1, 1, 1, 1, 1, 1, 1, 1, 1, 1, 1, 1
365, 0.58199, 1, 0.999469, 0.999926, 0.996997, 1, 1, 0.584097, 1, 1, 1, 1, 1, 1, 1, 0.999469, 1, 1, 0.996997, 1, 1, 1, 1, 1, 1, 1, 1, 1, 1, 1, 1, 1, 1, 1, 1, 1, 1, 1
366, 0.585757, 1, 0.999747, 0.999963, 0.99699, 1, 1, 0.587695, 1, 1, 1, 1, 1, 1, 1, 0.999747, 1, 1, 0.996991, 1, 1, 1, 1, 1, 1, 1, 1, 1, 1, 1, 1, 1, 1, 1, 1, 1, 1, 1
367, 0.58942, 1, 0.999866, 0.999991, 0.997024, 1, 1, 0.591264, 1, 1, 1, 1, 1, 1, 1, 0.999866, 1, 1, 0.997024, 1, 1, 1, 1, 1, 1, 1, 1, 1, 1, 1, 1, 1, 1, 1, 1, 1, 1, 1
368, 0.592995, 1, 0.99991, 1, 0.997052, 1, 1, 0.594803, 1, 1, 1, 1, 1, 1, 1, 0.99991, 1, 1, 0.997052, 1, 1, 1, 1, 1, 1, 1, 1, 1, 1, 1, 1, 1, 1, 1, 1, 1, 1, 1
369, 0.596509, 1, 0.999922, 1, 0.997065, 1, 1, 0.598312, 1, 1, 1, 1, 1, 1, 1, 0.999922, 1, 1, 0.997066, 1, 1, 1, 1, 1, 1, 1, 1, 1, 1, 1, 1, 1, 1, 1, 1, 1, 1, 1
370, 0.599969, 1, 0.999923, 1, 0.997051, 1, 1, 0.601791, 1, 1, 1, 1, 1, 1, 1, 0.999923, 1, 1, 0.997052, 1, 1, 1, 1, 1, 1, 1, 1, 1, 1, 1, 1, 1, 1, 1, 1, 1, 1, 1
371, 0.603368, 1, 0.999922, 1, 0.996984, 1, 1, 0.60524, 1, 1, 1, 1, 1, 1, 1, 0.999922, 1, 1, 0.996985, 1, 1, 1, 1, 1, 1, 1, 1, 1, 1, 1, 1, 1, 1, 1, 1, 1, 1, 1
372, 0.606729, 1, 0.999918, 1, 0.996909, 1, 1, 0.60866, 1, 1, 1, 1, 1, 1, 1, 0.999918, 1, 1, 0.996909, 1, 1, 1, 1, 1, 1, 1, 1, 1, 1, 1, 1, 1, 1, 1, 1, 1, 1, 1
373, 0.61011, 1, 0.999901, 1, 0.996927, 1, 1, 0.612051, 1, 1, 1, 1, 1, 1, 1, 0.999901, 1, 1, 0.996927, 1, 1, 1, 1, 1, 1, 1, 1, 1, 1, 1, 1, 1, 1, 1, 1, 1, 1, 1
374, 0.613436, 1, 0.999848, 1, 0.99694, 1, 1, 0.615413, 1, 1, 1, 1, 1, 1, 1, 0.999848, 1, 1, 0.996941, 0.999999, 1, 1, 1, 1, 1, 1, 1, 1, 1, 1, 1, 1, 1, 1, 1, 1, 1, 1
375, 0.616638, 1, 0.99972, 1, 0.996875, 1, 1, 0.618744, 1, 1, 1, 1, 1, 1, 1, 0.99972, 1, 1, 0.996876, 0.999999, 1, 1, 1, 1, 1, 1, 1, 1, 1, 1, 1, 1, 1, 1, 1, 1, 1, 1
376, 0.619712, 1, 0.999442, 1, 0.996804, 1, 1, 0.622047, 1, 1, 1, 1, 1, 1, 1, 0.999442, 1, 1, 0.996805, 1, 1, 1, 1, 1, 1, 1, 1, 1, 1, 1, 1, 1, 1, 1, 1, 1, 1, 1
377, 0.622696, 1, 0.998941, 1, 0.996859, 1, 1, 0.625322, 1, 1, 1, 1, 1, 1, 1, 0.998941, 1, 1, 0.99686, 1, 1, 1, 1, 1, 1, 1, 1, 1, 1, 1, 1, 1, 1, 1, 1, 1, 1, 1
378, 0.625526, 1, 0.998247, 1, 0.996913, 1, 1, 0.628567, 1, 1, 1, 1, 1, 1, 1, 0.998247, 1, 1, 0.996913, 1, 1, 1, 1, 1, 1, 1, 1, 1, 1, 1, 1, 1, 1, 1, 1, 1, 1, 1
379, 0.628274, 1, 0.997588, 1, 0.996852, 1, 1, 0.631784, 1, 1, 1, 1, 1, 1, 1, 0.997588, 1, 1, 0.996852, 1, 1, 1, 1, 1, 1, 1, 1, 1, 1, 1, 1, 1, 1, 1, 1, 1, 1, 1
380, 0.631194, 1, 0.997299, 1, 0.996742, 1, 1, 0.634973, 1, 1, 1, 1, 1, 1, 1, 0.997299, 1, 1, 0.996742, 1, 1, 1, 1, 1, 1, 1, 1, 1, 1, 1, 1, 1, 1, 1, 1, 1, 1, 1
381, 0.634508, 1, 0.997556, 1, 0.996752, 1, 1, 0.638133, 1, 1, 1, 1, 1, 1, 1, 0.997556, 1, 1, 0.996753, 1, 1, 1, 1, 1, 1, 1, 1, 1, 1, 1, 1, 1, 1, 1, 1, 1, 1, 1
382, 0.638083, 1, 0.998202, 1, 0.996823, 1, 1, 0.641266, 1, 1, 1, 1, 1, 1, 1, 0.998202, 1, 1, 0.996823, 1, 1, 1, 1, 1, 1, 1, 1, 1, 1, 1, 1, 1, 1, 1, 1, 1, 1, 1
383, 0.641627, 1, 0.998901, 1, 0.996836, 1, 1, 0.64437, 1, 1, 1, 1, 1, 1, 1, 0.998901, 1, 1, 0.996836, 1, 1, 1, 1, 1, 1, 1, 1, 1, 1, 1, 1, 1, 1, 1, 1, 1, 1, 1
384, 0.644982, 1, 0.999413, 1, 0.996778, 1, 1, 0.647447, 1, 1, 1, 1, 1, 1, 1, 0.999413, 1, 1, 0.996778, 1, 1, 1, 1, 1, 1, 1, 1, 1, 1, 1, 1, 1, 1, 1, 1, 1, 1, 1
385, 0.64819, 1, 0.999704, 1, 0.996749, 1, 1, 0.650496, 1, 1, 1, 1, 1, 1, 1, 0.999704, 1, 1, 0.996749, 1, 1, 1, 1, 1, 1, 1, 1, 1, 1, 1, 1, 1, 1, 1, 1, 1, 1, 1
386, 0.651302, 1, 0.999846, 1, 0.996763, 1, 1, 0.653517, 1, 1, 1, 1, 1, 1, 1, 0.999846, 1, 1, 0.996764, 1, 1, 1, 1, 1, 1, 1, 1, 1, 1, 1, 1, 1, 1, 1, 1, 1, 1, 1
387, 0.654322, 1, 0.999904, 1, 0.996761, 1, 1, 0.656512, 1, 1, 1, 1, 1, 1, 1, 0.999904, 1, 1, 0.996761, 1, 1, 1, 1, 1, 1, 1, 1, 1, 1, 1, 1, 1, 1, 1, 1, 1, 1, 1
388, 0.657262, 0.999995, 0.99992, 1, 0.996723, 1, 1, 0.659479, 1, 1, 1, 1, 1, 1, 1, 0.99992, 1, 1, 0.996723, 1, 1, 1, 1, 1, 1, 1, 1, 1, 1, 1, 1, 1, 1, 1, 1, 1, 1, 1
389, 0.660159, 0.999981, 0.999925, 1, 0.996681, 1, 1, 0.662419, 1, 1, 1, 1, 1, 1, 1, 0.999925, 1, 1, 0.996682, 1, 1, 1, 1, 1, 1, 1, 1, 1, 1, 1, 1, 1, 1, 1, 1, 1, 1, 1
390, 0.663039, 0.99996, 0.999939, 1, 0.996653, 1, 1, 0.665333, 1, 1, 1, 1, 1, 1, 1, 0.999939, 1, 1, 0.996653, 1, 1, 1, 1, 1, 1, 1, 1, 1, 1, 1, 1, 1, 1, 1, 1, 1, 1, 1
391, 0.665914, 0.999946, 0.999962, 1, 0.996639, 1, 1, 0.668221, 1, 1, 1, 1, 1, 1, 1, 0.999962, 1, 1, 0.996639, 1, 1, 1, 1, 1, 1, 1, 1, 1, 1, 1, 1, 1, 1, 1, 1, 1, 1, 1
392, 0.668809, 0.999949, 0.999986, 1, 0.996679, 1, 1, 0.671082, 1, 1, 1, 1, 1, 1, 1, 0.999986, 1, 1, 0.996679, 1, 1, 1, 1, 1, 1, 1, 1, 1, 1, 1, 1, 1, 1, 1, 1, 1, 1, 1
393, 0.671717, 0.999959, 0.999997, 1, 0.996778, 1, 1, 0.673916, 1, 1, 1, 1, 1, 1, 1, 0.999997, 1, 1, 0.996778, 1, 1, 1, 1, 1, 1, 1, 1, 1, 1, 1, 1, 1, 1, 1, 1, 1, 1, 1
394, 0.674549, 0.999969, 1, 1, 0.996815, 1, 1, 0.676726, 1, 1, 1, 1, 1, 1, 1, 1, 1, 1, 0.996815, 1, 1, 1, 1, 1, 1, 1, 1, 1, 1, 1, 1, 1, 1, 1, 1, 1, 1, 1
395, 0.677271, 0.999926, 1, 1, 0.996782, 1, 1, 0.679508, 1, 1, 1, 1, 1, 1, 1, 1, 1, 1, 0.996782, 1, 1, 1, 1, 1, 1, 1, 1, 1, 1, 1, 1, 1, 1, 1, 1, 1, 1, 1
396, 0.679903, 0.999805, 1, 1, 0.996731, 1, 1, 0.682266, 1, 1, 1, 1, 1, 1, 1, 1, 1, 1, 0.996731, 1, 1, 1, 1, 1, 1, 1, 1, 1, 1, 1, 1, 1, 1, 1, 1, 1, 1, 1
397, 0.682507, 0.999659, 1, 1, 0.996705, 1, 1, 0.684998, 1, 1, 1, 1, 1, 1, 1, 1, 1, 1, 0.996705, 1, 1, 1, 1, 1, 1, 1, 1, 1, 1, 1, 1, 1, 1, 1, 1, 1, 1, 1
398, 0.685118, 0.999606, 0.999997, 1, 0.996635, 1, 1, 0.687706, 1, 1, 1, 1, 1, 1, 1, 0.999997, 1, 1, 0.996635, 1, 1, 1, 1, 1, 1, 1, 1, 1, 1, 1, 1, 1, 1, 1, 1, 1, 1, 1
399, 0.687753, 0.999636, 0.999984, 1, 0.996563, 1, 1, 0.690387, 1, 1, 1, 1, 1, 1, 1, 0.999984, 1, 1, 0.996563, 1, 1, 1, 1, 1, 1, 1, 1, 1, 1, 1, 1, 1, 1, 1, 1, 1, 1, 1
400, 0.690405, 0.999726, 0.99996, 1, 0.996503, 1, 1, 0.693044, 1, 1, 1, 1, 1, 1, 1, 0.99996, 1, 1, 0.996503, 1, 1, 1, 1, 1, 1, 1, 1, 1, 1, 1, 1, 1, 1, 1, 1, 1, 1, 1
401, 0.693128, 0.99981, 0.999939, 1, 0.996585, 1, 1, 0.695677, 1, 1, 1, 1, 1, 1, 1, 0.999939, 1, 1, 0.996585, 1, 1, 1, 1, 1, 1, 1, 1, 1, 1, 1, 1, 1, 1, 1, 1, 1, 1, 1
402, 0.69587, 0.999886, 0.999928, 1, 0.996729, 1, 1, 0.698285, 1, 1, 1, 1, 1, 1, 1, 0.999928, 1, 1, 0.996729, 1, 1, 1, 1, 1, 1, 1, 1, 1, 1, 1, 1, 1, 1, 1, 1, 1, 1, 1
403, 0.698537, 0.999933, 0.999924, 1, 0.996816, 1, 1, 0.700868, 1, 1, 1, 1, 1, 1, 1, 0.999924, 1, 1, 0.996816, 1, 1, 1, 1, 1, 1, 1, 1, 1, 1, 1, 1, 1, 1, 1, 1, 1, 1, 1
404, 0.701073, 0.99996, 0.999922, 1, 0.996769, 1, 1, 0.703429, 1, 1, 1, 1, 1, 1, 1, 0.999922, 1, 1, 0.996769, 1, 1, 1, 1, 1, 1, 1, 1, 1, 1, 1, 1, 1, 1, 1, 1, 1, 1, 1
405, 0.703606, 0.999976, 0.999926, 0.999999, 0.996756, 1, 1, 0.705964, 1, 1, 1, 1, 1, 1, 1, 0.999926, 1, 1, 0.996756, 1, 1, 1, 1, 1, 1, 1, 1, 1, 1, 1, 1, 1, 1, 1, 1, 1, 1, 1
406, 0.706192, 0.999987, 0.999942, 0.999994, 0.99685, 1, 1, 0.708477, 1, 1, 1, 1, 1, 1, 1, 0.999942, 1, 1, 0.99685, 1, 1, 1, 1, 1, 1, 1, 1, 1, 1, 1, 1, 1, 1, 1, 1, 1, 1, 1
407, 0.708697, 0.999994, 0.999968, 0.99998, 0.996867, 1, 1, 0.710966, 1, 1, 1, 1, 1, 1, 1, 0.999968, 1, 1, 0.996867, 1, 1, 1, 1, 1, 1, 1, 1, 1, 1, 1, 1, 1, 1, 1, 1, 1, 1, 1
408, 0.711051, 0.999996, 0.999989, 0.999959, 0.99672, 1, 1, 0.713431, 1, 1, 1, 1, 1, 1, 1, 0.999989, 1, 1, 0.99672, 1, 1, 1, 1, 1, 1, 1, 1, 1, 1, 1, 1, 1, 1, 1, 1, 1, 1, 1
409, 0.713372, 0.999997, 0.999999, 0.99994, 0.996568, 1, 1, 0.715874, 1, 1, 1, 1, 1, 1, 1, 0.999999, 1, 1, 0.996568, 1, 1, 1, 1, 1, 1, 1, 1, 1, 1, 1, 1, 1, 1, 1, 1, 1, 1, 1
410, 0.715784, 0.999998, 1, 0.999927, 0.99658, 1, 1, 0.718294, 1, 1, 1, 1, 1, 1, 1, 1, 1, 1, 0.99658, 1, 1, 1, 1, 1, 1, 1, 1, 1, 1, 1, 1, 1, 1, 1, 1, 1, 1, 1
411, 0.71825, 0.999996, 1, 0.999921, 0.996695, 1, 1, 0.720691, 1, 1, 1, 1, 1, 1, 1, 1, 1, 1, 0.996695, 1, 1, 1, 1, 1, 1, 1, 1, 1, 1, 1, 1, 1, 1, 1, 1, 1, 1, 1
412, 0.720619, 0.999989, 0.999999, 0.999922, 0.996705, 1, 1, 0.723065, 1, 1, 1, 1, 1, 1, 1, 0.999999, 1, 1, 0.996705, 1, 1, 1, 1, 1, 1, 1, 1, 1, 1, 1, 1, 1, 1, 1, 1, 1, 1, 1
413, 0.722888, 0.999973, 0.999992, 0.999924, 0.996625, 1, 1, 0.725417, 1, 1, 1, 1, 1, 1, 1, 0.999992, 1, 1, 0.996625, 1, 1, 1, 1, 1, 1, 1, 1, 1, 1, 1, 1, 1, 1, 1, 1, 1, 1, 1
414, 0.725195, 0.999931, 0.999975, 0.999919, 0.996667, 1, 1, 0.727748, 1, 1, 1, 1, 1, 1, 1, 0.999975, 1, 1, 0.996667, 1, 1, 1, 1, 1, 1, 1, 1, 1, 1, 1, 1, 1, 1, 1, 1, 1, 1, 1
415, 0.727541, 0.999826, 0.999953, 0.999905, 0.996872, 1, 1, 0.730056, 1, 1, 1, 1, 1, 1, 1, 0.999953, 1, 1, 0.996872, 1, 1, 1, 1, 1, 1, 1, 1, 1, 1, 1, 1, 1, 1, 1, 1, 1, 1, 1
416, 0.729872, 0.999722, 0.999933, 0.999886, 0.997085, 1, 1, 0.732342, 1, 1, 1, 1, 1, 1, 1, 0.999933, 1, 1, 0.997085, 1, 1, 1, 1, 1, 1, 1, 1, 1, 1, 1, 1, 1, 1, 1, 1, 1, 1, 1
417, 0.73209, 0.999681, 0.999924, 0.999869, 0.997097, 1, 1, 0.734607, 1, 1, 1, 1, 1, 1, 1, 0.999924, 1, 1, 0.997097, 1, 1, 1, 1, 1, 1, 1, 1, 1, 1, 1, 1, 1, 1, 1, 1, 1, 1, 1
