case index 6 = {
num freq, 1701
num column, 38
Waveln,  combin,  H2O,  umix,  O3,  trace,  N2,  H2Ocnt,  molec,  aercld,  HNO3,  aercld,  CO2,  CO,  CH4,  N2O,  O2,  NH3,  NO,  NO2,  SO2,  cloud,  F11,  F12,  CCl3F,  CF4,  F22,  F113,  F114,  R115,  ClONO2,  HNO4,  CHCl2F,  CCl4,  N2O5,  H2-H2,  H2-HE,  H2-CH4,  CH4-CH4
  [nm],  trans,  trans,  trans,  trans,  trans,  trans,  trans,  scat,  trans,  trans,  abtrns,  trans,  trans,  trans,  trans,  trans,  trans,  trans,  trans,  trans,  trans,  trans,  trans,  trans,  trans,  trans,  trans,  trans,  trans,  trans,  trans,  trans,  trans,  trans,  trans,  trans,  trans,  trans
300, 0.00129091, 1, 1, 0.00845168, 0.996021, 1, 1, 0.150472, 1, 1, 1, 1, 1, 1, 1, 1, 1, 1, 0.998866, 0.997153, 1, 1, 1, 1, 1, 1, 1, 1, 1, 1, 1, 1, 1, 1, 1, 1, 1, 1
301, 0.00239118, 1, 1, 0.0152695, 0.996381, 1, 1, 0.154589, 1, 1, 1, 1, 1, 1, 1, 1, 1, 1, 0.998832, 0.997546, 1, 1, 1, 1, 1, 1, 1, 1, 1, 1, 1, 1, 1, 1, 1, 1, 1, 1
302, 0.00411544, 1, 1, 0.0256475, 0.996497, 1, 1, 0.158742, 1, 1, 1, 1, 1, 1, 1, 1, 1, 1, 0.99876, 0.997735, 1, 1, 1, 1, 1, 1, 1, 1, 1, 1, 1, 1, 1, 1, 1, 1, 1, 1
303, 0.00664721, 1, 1, 0.0404379, 0.996673, 1, 1, 0.162928, 1, 1, 1, 1, 1, 1, 1, 1, 1, 1, 0.998679, 0.997991, 1, 1, 1, 1, 1, 1, 1, 1, 1, 1, 1, 1, 1, 1, 1, 1, 1, 1
304, 0.0101547, 1, 1, 0.0602931, 0.99674, 1, 1, 0.167147, 1, 1, 1, 1, 1, 1, 1, 1, 1, 1, 0.998626, 0.998112, 1, 1, 1, 1, 1, 1, 1, 1, 1, 1, 1, 1, 1, 1, 1, 1, 1, 1
305, 0.014768, 1, 1, 0.0856496, 0.996893, 1, 1, 0.171397, 1, 1, 1, 1, 1, 1, 1, 1, 1, 1, 0.998595, 0.998295, 1, 1, 1, 1, 1, 1, 1, 1, 1, 1, 1, 1, 1, 1, 1, 1, 1, 1
306, 0.0206285, 1, 1, 0.116826, 0.996952, 1, 1, 0.175677, 1, 1, 1, 1, 1, 1, 1, 1, 1, 1, 0.998571, 0.998378, 1, 1, 1, 1, 1, 1, 1, 1, 1, 1, 1, 1, 1, 1, 1, 1, 1, 1
307, 0.0276584, 1, 1, 0.153089, 0.997039, 1, 1, 0.179984, 1, 1, 1, 1, 1, 1, 1, 1, 1, 1, 0.998534, 0.998503, 1, 1, 1, 1, 1, 1, 1, 1, 1, 1, 1, 1, 1, 1, 1, 1, 1, 1
308, 0.0359097, 1, 1, 0.194228, 0.997112, 1, 1, 0.184319, 1, 1, 1, 1, 1, 1, 1, 1, 1, 1, 0.99848, 0.998629, 1, 1, 1, 1, 1, 1, 1, 1, 1, 1, 1, 1, 1, 1, 1, 1, 1, 1
309, 0.0452152, 1, 1, 0.239095, 0.997172, 1, 1, 0.188679, 1, 1, 1, 1, 1, 1, 1, 1, 1, 1, 0.998408, 0.998762, 1, 1, 1, 1, 1, 1, 1, 1, 1, 1, 1, 1, 1, 1, 1, 1, 1, 1
310, 0.0554527, 1, 1, 0.286779, 0.99724, 1, 1, 0.193063, 1, 1, 1, 1, 1, 1, 1, 1, 1, 1, 0.998342, 0.998895, 1, 1, 1, 1, 1, 1, 1, 1, 1, 1, 1, 1, 1, 1, 1, 1, 1, 1
311, 0.0665435, 1, 1, 0.336598, 0.997312, 1, 1, 0.19747, 1, 1, 1, 1, 1, 1, 1, 1, 1, 1, 0.998281, 0.99903, 1, 1, 1, 1, 1, 1, 1, 1, 1, 1, 1, 1, 1, 1, 1, 1, 1, 1
312, 0.0780962, 1, 1, 0.386566, 0.997417, 1, 1, 0.201899, 1, 1, 1, 1, 1, 1, 1, 1, 1, 1, 0.998239, 0.999177, 1, 1, 1, 1, 1, 1, 1, 1, 1, 1, 1, 1, 1, 1, 1, 1, 1, 1
313, 0.0905328, 1, 1, 0.438584, 0.997482, 1, 1, 0.206347, 1, 1, 1, 1, 1, 1, 1, 1, 1, 1, 0.998196, 0.999284, 1, 1, 1, 1, 1, 1, 1, 1, 1, 1, 1, 1, 1, 1, 1, 1, 1, 1
314, 0.102657, 1, 1, 0.487009, 0.997552, 1, 1, 0.210815, 1, 1, 1, 1, 1, 1, 1, 1, 1, 1, 0.998155, 0.999396, 1, 1, 1, 1, 1, 1, 1, 1, 1, 1, 1, 1, 1, 1, 1, 1, 1, 1
315, 0.11539, 1, 1, 0.536139, 0.997571, 1, 1, 0.2153, 1, 1, 1, 1, 1, 1, 1, 1, 1, 1, 0.998098, 0.999472, 1, 1, 1, 1, 1, 1, 1, 1, 1, 1, 1, 1, 1, 1, 1, 1, 1, 1
316, 0.127162, 1, 1, 0.578997, 0.997575, 1, 1, 0.219801, 1, 1, 1, 1, 1, 1, 1, 1, 1, 1, 0.998028, 0.999546, 1, 1, 1, 1, 1, 1, 1, 1, 1, 1, 1, 1, 1, 1, 1, 1, 1, 1
317, 0.139699, 1, 1, 0.623306, 0.997554, 1, 1, 0.224317, 1, 1, 1, 1, 1, 1, 1, 1, 1, 1, 0.997947, 0.999605, 1, 1, 1, 1, 1, 1, 1, 1, 1, 1, 1, 1, 1, 1, 1, 1, 1, 1
318, 0.151684, 1, 1, 0.663539, 0.997552, 1, 1, 0.228847, 1, 1, 1, 1, 1, 1, 1, 1, 1, 1, 0.997873, 0.999678, 1, 1, 1, 1, 1, 1, 1, 1, 1, 1, 1, 1, 1, 1, 1, 1, 1, 1
319, 0.1642, 1, 1, 0.704451, 0.997564, 1, 1, 0.233389, 1, 1, 1, 1, 1, 1, 1, 1, 1, 1, 0.997818, 0.999746, 1, 1, 1, 1, 1, 1, 1, 1, 1, 1, 1, 1, 1, 1, 1, 1, 1, 1
320, 0.175641, 1, 1, 0.739191, 0.997574, 1, 1, 0.237943, 1, 1, 1, 1, 1, 1, 1, 1, 1, 1, 0.997775, 0.999799, 1, 1, 1, 1, 1, 1, 1, 1, 1, 1, 1, 1, 1, 1, 1, 1, 1, 1
321, 0.186637, 1, 1, 0.770942, 0.997578, 1, 1, 0.242507, 1, 1, 1, 1, 1, 1, 1, 1, 1, 1, 0.997735, 0.999842, 1, 1, 1, 1, 1, 1, 1, 1, 1, 1, 1, 1, 1, 1, 1, 1, 1, 1
322, 0.19642, 1, 1, 0.79638, 0.997569, 1, 1, 0.24708, 1, 1, 1, 1, 1, 1, 1, 1, 1, 1, 0.997686, 0.999883, 1, 1, 1, 1, 1, 1, 1, 1, 1, 1, 1, 1, 1, 1, 1, 1, 1, 1
323, 0.206582, 1, 1, 0.822365, 0.997547, 1, 1, 0.251661, 1, 1, 1, 1, 1, 1, 1, 1, 1, 1, 0.997633, 0.999914, 1, 1, 1, 1, 1, 1, 1, 1, 1, 1, 1, 1, 1, 1, 1, 1, 1, 1
324, 0.216337, 1, 1, 0.84592, 0.997516, 1, 1, 0.256248, 1, 1, 1, 1, 1, 1, 1, 1, 1, 1, 0.997578, 0.999938, 1, 1, 1, 1, 1, 1, 1, 1, 1, 1, 1, 1, 1, 1, 1, 1, 1, 1
325, 0.225153, 1, 1, 0.865047, 0.997476, 1, 1, 0.260841, 1, 1, 1, 1, 1, 1, 1, 1, 1, 1, 0.997522, 0.999954, 1, 1, 1, 1, 1, 1, 1, 1, 1, 1, 1, 1, 1, 1, 1, 1, 1, 1
326, 0.233829, 1, 1, 0.882822, 0.997435, 1, 1, 0.265439, 1, 1, 1, 1, 1, 1, 1, 1, 1, 1, 0.99747, 0.999964, 1, 1, 1, 1, 1, 1, 1, 1, 1, 1, 1, 1, 1, 1, 1, 1, 1, 1
327, 0.241985, 1, 1, 0.898195, 0.997402, 1, 1, 0.27004, 1, 1, 1, 1, 1, 1, 1, 1, 1, 1, 0.997427, 0.999975, 1, 1, 1, 1, 1, 1, 1, 1, 1, 1, 1, 1, 1, 1, 1, 1, 1, 1
328, 0.249662, 1, 1, 0.911224, 0.997356, 1, 1, 0.274644, 1, 1, 1, 1, 1, 1, 1, 1, 1, 1, 0.997374, 0.999981, 1, 1, 1, 1, 1, 1, 1, 1, 1, 1, 1, 1, 1, 1, 1, 1, 1, 1
329, 0.257745, 1, 1, 0.925202, 0.997306, 1, 1, 0.279249, 1, 1, 1, 1, 1, 1, 1, 1, 1, 1, 0.997318, 0.999986, 1, 1, 1, 1, 1, 1, 1, 1, 1, 1, 1, 1, 1, 1, 1, 1, 1, 1
330, 0.264888, 1, 1, 0.935625, 0.997265, 1, 1, 0.283855, 1, 1, 1, 1, 1, 1, 1, 1, 1, 1, 0.997274, 0.99999, 1, 1, 1, 1, 1, 1, 1, 1, 1, 1, 1, 1, 1, 1, 1, 1, 1, 1
331, 0.271178, 1, 1, 0.942639, 0.997196, 1, 1, 0.28846, 1, 1, 1, 1, 1, 1, 1, 1, 1, 1, 0.997203, 0.999993, 1, 1, 1, 1, 1, 1, 1, 1, 1, 1, 1, 1, 1, 1, 1, 1, 1, 1
332, 0.277797, 1, 1, 0.950466, 0.997107, 1, 1, 0.293064, 1, 1, 1, 1, 1, 1, 1, 1, 1, 1, 0.997112, 0.999996, 1, 1, 1, 1, 1, 1, 1, 1, 1, 1, 1, 1, 1, 1, 1, 1, 1, 1
333, 0.284717, 1, 0.999988, 0.959265, 0.997018, 1, 1, 0.297665, 1, 1, 1, 1, 1, 1, 1, 0.999988, 1, 1, 0.997022, 0.999996, 1, 1, 1, 1, 1, 1, 1, 1, 1, 1, 1, 1, 1, 1, 1, 1, 1, 1
334, 0.291009, 1, 0.999913, 0.965649, 0.997011, 1, 1, 0.302264, 1, 1, 1, 1, 1, 1, 1, 0.999913, 1, 1, 0.997014, 0.999998, 1, 1, 1, 1, 1, 1, 1, 1, 1, 1, 1, 1, 1, 1, 1, 1, 1, 1
335, 0.297469, 1, 0.999763, 0.972426, 0.996994, 1, 1, 0.306857, 1, 1, 1, 1, 1, 1, 1, 0.999763, 1, 1, 0.996996, 0.999998, 1, 1, 1, 1, 1, 1, 1, 1, 1, 1, 1, 1, 1, 1, 1, 1, 1, 1
336, 0.303139, 1, 0.999593, 0.97666, 0.996977, 1, 1, 0.311447, 1, 1, 1, 1, 1, 1, 1, 0.999593, 1, 1, 0.996978, 0.999999, 1, 1, 1, 1, 1, 1, 1, 1, 1, 1, 1, 1, 1, 1, 1, 1, 1, 1
337, 0.307843, 1, 0.999468, 0.97765, 0.996909, 1, 1, 0.31603, 1, 1, 1, 1, 1, 1, 1, 0.999468, 1, 1, 0.99691, 0.999999, 1, 1, 1, 1, 1, 1, 1, 1, 1, 1, 1, 1, 1, 1, 1, 1, 1, 1
338, 0.312992, 1, 0.999377, 0.979914, 0.996804, 1, 1, 0.320606, 1, 1, 1, 1, 1, 1, 1, 0.999377, 1, 1, 0.996804, 1, 1, 1, 1, 1, 1, 1, 1, 1, 1, 1, 1, 1, 1, 1, 1, 1, 1, 1
339, 0.318783, 1, 0.999234, 0.984317, 0.996661, 1, 1, 0.325176, 1, 1, 1, 1, 1, 1, 1, 0.999234, 1, 1, 0.996661, 1, 1, 1, 1, 1, 1, 1, 1, 1, 1, 1, 1, 1, 1, 1, 1, 1, 1, 1
340, 0.324186, 1, 0.998976, 0.98756, 0.996558, 1, 1, 0.329737, 1, 1, 1, 1, 1, 1, 1, 0.998976, 1, 1, 0.996558, 1, 1, 1, 1, 1, 1, 1, 1, 1, 1, 1, 1, 1, 1, 1, 1, 1, 1, 1
341, 0.329268, 1, 0.99858, 0.989768, 0.99654, 1, 1, 0.334289, 1, 1, 1, 1, 1, 1, 1, 0.99858, 1, 1, 0.99654, 1, 1, 1, 1, 1, 1, 1, 1, 1, 1, 1, 1, 1, 1, 1, 1, 1, 1, 1
342, 0.334349, 1, 0.998129, 0.991965, 0.9966, 1, 1, 0.338832, 1, 1, 1, 1, 1, 1, 1, 0.998129, 1, 1, 0.9966, 1, 1, 1, 1, 1, 1, 1, 1, 1, 1, 1, 1, 1, 1, 1, 1, 1, 1, 1
343, 0.338979, 1, 0.997823, 0.992731, 0.996647, 1, 1, 0.343364, 1, 1, 1, 1, 1, 1, 1, 0.997823, 1, 1, 0.996647, 1, 1, 1, 1, 1, 1, 1, 1, 1, 1, 1, 1, 1, 1, 1, 1, 1, 1, 1
344, 0.34323, 1, 0.997879, 0.992089, 0.9966, 1, 1, 0.347886, 1, 1, 1, 1, 1, 1, 1, 0.997879, 1, 1, 0.9966, 1, 1, 1, 1, 1, 1, 1, 1, 1, 1, 1, 1, 1, 1, 1, 1, 1, 1, 1
345, 0.348223, 1, 0.998315, 0.993294, 0.996467, 1, 1, 0.352395, 1, 1, 1, 1, 1, 1, 1, 0.998315, 1, 1, 0.996467, 1, 1, 1, 1, 1, 1, 1, 1, 1, 1, 1, 1, 1, 1, 1, 1, 1, 1, 1
346, 0.353586, 1, 0.998885, 0.995466, 0.996316, 1, 1, 0.356893, 1, 1, 1, 1, 1, 1, 1, 0.998885, 1, 1, 0.996316, 1, 1, 1, 1, 1, 1, 1, 1, 1, 1, 1, 1, 1, 1, 1, 1, 1, 1, 1
347, 0.358759, 1, 0.999323, 0.997238, 0.996165, 1, 1, 0.361377, 1, 1, 1, 1, 1, 1, 1, 0.999323, 1, 1, 0.996165, 1, 1, 1, 1, 1, 1, 1, 1, 1, 1, 1, 1, 1, 1, 1, 1, 1, 1, 1
348, 0.363518, 1, 0.999541, 0.997974, 0.996094, 1, 1, 0.365848, 1, 1, 1, 1, 1, 1, 1, 0.999541, 1, 1, 0.996094, 1, 1, 1, 1, 1, 1, 1, 1, 1, 1, 1, 1, 1, 1, 1, 1, 1, 1, 1
349, 0.368206, 1, 0.999599, 0.99857, 0.996147, 1, 1, 0.370305, 1, 1, 1, 1, 1, 1, 1, 0.999599, 1, 1, 0.996147, 1, 1, 1, 1, 1, 1, 1, 1, 1, 1, 1, 1, 1, 1, 1, 1, 1, 1, 1
350, 0.37271, 1, 0.999568, 0.998769, 0.996221, 1, 1, 0.374747, 1, 1, 1, 1, 1, 1, 1, 0.999568, 1, 1, 0.996222, 1, 1, 1, 1, 1, 1, 1, 1, 1, 1, 1, 1, 1, 1, 1, 1, 1, 1, 1
351, 0.377026, 1, 0.999486, 0.998586, 0.996259, 1, 1, 0.379174, 1, 1, 1, 1, 1, 1, 1, 0.999486, 1, 1, 0.996259, 1, 1, 1, 1, 1, 1, 1, 1, 1, 1, 1, 1, 1, 1, 1, 1, 1, 1, 1
352, 0.381316, 1, 0.999363, 0.998477, 0.996234, 1, 1, 0.383586, 1, 1, 1, 1, 1, 1, 1, 0.999363, 1, 1, 0.996235, 1, 1, 1, 1, 1, 1, 1, 1, 1, 1, 1, 1, 1, 1, 1, 1, 1, 1, 1
353, 0.385726, 1, 0.999182, 0.99887, 0.996123, 1, 1, 0.387981, 1, 1, 1, 1, 1, 1, 1, 0.999182, 1, 1, 0.996123, 1, 1, 1, 1, 1, 1, 1, 1, 1, 1, 1, 1, 1, 1, 1, 1, 1, 1, 1
354, 0.39009, 1, 0.998912, 0.999354, 0.995941, 1, 1, 0.39236, 1, 1, 1, 1, 1, 1, 1, 0.998912, 1, 1, 0.995942, 1, 1, 1, 1, 1, 1, 1, 1, 1, 1, 1, 1, 1, 1, 1, 1, 1, 1, 1
355, 0.394287, 1, 0.998478, 0.999559, 0.995826, 1, 1, 0.396721, 1, 1, 1, 1, 1, 1, 1, 0.998478, 1, 1, 0.995827, 1, 1, 1, 1, 1, 1, 1, 1, 1, 1, 1, 1, 1, 1, 1, 1, 1, 1, 1
356, 0.398272, 1, 0.997757, 0.999515, 0.995763, 1, 1, 0.401065, 1, 1, 1, 1, 1, 1, 1, 0.997757, 1, 1, 0.995764, 1, 1, 1, 1, 1, 1, 1, 1, 1, 1, 1, 1, 1, 1, 1, 1, 1, 1, 1
357, 0.402076, 1, 0.996645, 0.999452, 0.995724, 1, 1, 0.405392, 1, 1, 1, 1, 1, 1, 1, 0.996645, 1, 1, 0.995724, 1, 1, 1, 1, 1, 1, 1, 1, 1, 1, 1, 1, 1, 1, 1, 1, 1, 1, 1
358, 0.405777, 1, 0.995167, 0.999469, 0.995782, 1, 1, 0.409699, 1, 1, 1, 1, 1, 1, 1, 0.995167, 1, 1, 0.995782, 0.999999, 1, 1, 1, 1, 1, 1, 1, 1, 1, 1, 1, 1, 1, 1, 1, 1, 1, 1
359, 0.409454, 1, 0.993633, 0.999517, 0.995882, 1, 1, 0.413988, 1, 1, 1, 1, 1, 1, 1, 0.993633, 1, 1, 0.995883, 0.999999, 1, 1, 1, 1, 1, 1, 1, 1, 1, 1, 1, 1, 1, 1, 1, 1, 1, 1
360, 0.413316, 1, 0.992711, 0.999557, 0.995888, 1, 1, 0.418257, 1, 1, 1, 1, 1, 1, 1, 0.992711, 1, 1, 0.995888, 0.999999, 1, 1, 1, 1, 1, 1, 1, 1, 1, 1, 1, 1, 1, 1, 1, 1, 1, 1
361, 0.417641, 1, 0.993044, 0.999615, 0.995776, 1, 1, 0.422507, 1, 1, 1, 1, 1, 1, 1, 0.993044, 1, 1, 0.995776, 0.999999, 1, 1, 1, 1, 1, 1, 1, 1, 1, 1, 1, 1, 1, 1, 1, 1, 1, 1
362, 0.422522, 1, 0.994638, 0.999711, 0.995721, 1, 1, 0.426737, 1, 1, 1, 1, 1, 1, 1, 0.994638, 1, 1, 0.995721, 1, 1, 1, 1, 1, 1, 1, 1, 1, 1, 1, 1, 1, 1, 1, 1, 1, 1, 1
363, 0.427575, 1, 0.996672, 0.999794, 0.99567, 1, 1, 0.430948, 1, 1, 1, 1, 1, 1, 1, 0.996672, 1, 1, 0.99567, 0.999999, 1, 1, 1, 1, 1, 1, 1, 1, 1, 1, 1, 1, 1, 1, 1, 1, 1, 1
364, 0.432394, 1, 0.998278, 0.999847, 0.995553, 1, 1, 0.435137, 1, 1, 1, 1, 1, 1, 1, 0.998278, 1, 1, 0.995554, 0.999999, 1, 1, 1, 1, 1, 1, 1, 1, 1, 1, 1, 1, 1, 1, 1, 1, 1, 1
365, 0.436893, 1, 0.999187, 0.999887, 0.995425, 1, 1, 0.439306, 1, 1, 1, 1, 1, 1, 1, 0.999187, 1, 1, 0.995425, 1, 1, 1, 1, 1, 1, 1, 1, 1, 1, 1, 1, 1, 1, 1, 1, 1, 1, 1
366, 0.441226, 1, 0.999612, 0.999944, 0.995415, 1, 1, 0.443453, 1, 1, 1, 1, 1, 1, 1, 0.999612, 1, 1, 0.995415, 1, 1, 1, 1, 1, 1, 1, 1, 1, 1, 1, 1, 1, 1, 1, 1, 1, 1, 1
367, 0.445453, 1, 0.999794, 0.999985, 0.995466, 1, 1, 0.44758, 1, 1, 1, 1, 1, 1, 1, 0.999794, 1, 1, 0.995467, 1, 1, 1, 1, 1, 1, 1, 1, 1, 1, 1, 1, 1, 1, 1, 1, 1, 1, 1
368, 0.449593, 1, 0.999862, 1, 0.995508, 1, 1, 0.451684, 1, 1, 1, 1, 1, 1, 1, 0.999862, 1, 1, 0.995509, 1, 1, 1, 1, 1, 1, 1, 1, 1, 1, 1, 1, 1, 1, 1, 1, 1, 1, 1
369, 0.453674, 1, 0.999879, 1, 0.995529, 1, 1, 0.455767, 1, 1, 1, 1, 1, 1, 1, 0.999879, 1, 1, 0.99553, 0.999999, 1, 1, 1, 1, 1, 1, 1, 1, 1, 1, 1, 1, 1, 1, 1, 1, 1, 1
370, 0.457707, 1, 0.999881, 1, 0.995507, 1, 1, 0.459827, 1, 1, 1, 1, 1, 1, 1, 0.999881, 1, 1, 0.995508, 0.999999, 1, 1, 1, 1, 1, 1, 1, 1, 1, 1, 1, 1, 1, 1, 1, 1, 1, 1
371, 0.461679, 1, 0.999881, 1, 0.995407, 1, 1, 0.463866, 1, 1, 1, 1, 1, 1, 1, 0.999881, 1, 1, 0.995407, 0.999999, 1, 1, 1, 1, 1, 1, 1, 1, 1, 1, 1, 1, 1, 1, 1, 1, 1, 1
372, 0.46562, 1, 0.999876, 1, 0.995292, 1, 1, 0.467881, 1, 1, 1, 1, 1, 1, 1, 0.999876, 1, 1, 0.995292, 1, 1, 1, 1, 1, 1, 1, 1, 1, 1, 1, 1, 1, 1, 1, 1, 1, 1, 1
373, 0.469595, 1, 0.999849, 1, 0.995319, 1, 1, 0.471874, 1, 1, 1, 1, 1, 1, 1, 0.999849, 1, 1, 0.99532, 1, 1, 1, 1, 1, 1, 1, 1, 1, 1, 1, 1, 1, 1, 1, 1, 1, 1, 1
374, 0.473516, 1, 0.999768, 1, 0.995339, 1, 1, 0.475844, 1, 1, 1, 1, 1, 1, 1, 0.999768, 1, 1, 0.99534, 0.999999, 1, 1, 1, 1, 1, 1, 1, 1, 1, 1, 1, 1, 1, 1, 1, 1, 1, 1
375, 0.477302, 1, 0.999572, 1, 0.995241, 1, 1, 0.479791, 1, 1, 1, 1, 1, 1, 1, 0.999572, 1, 1, 0.995242, 0.999999, 1, 1, 1, 1, 1, 1, 1, 1, 1, 1, 1, 1, 1, 1, 1, 1, 1, 1
376, 0.480947, 1, 0.999146, 1, 0.995132, 1, 1, 0.483715, 1, 1, 1, 1, 1, 1, 1, 0.999146, 1, 1, 0.995132, 1, 1, 1, 1, 1, 1, 1, 1, 1, 1, 1, 1, 1, 1, 1, 1, 1, 1, 1
377, 0.484493, 1, 0.99838, 1, 0.995216, 1, 1, 0.487615, 1, 1, 1, 1, 1, 1, 1, 0.99838, 1, 1, 0.995217, 1, 1, 1, 1, 1, 1, 1, 1, 1, 1, 1, 1, 1, 1, 1, 1, 1, 1, 1
378, 0.487864, 1, 0.997319, 1, 0.995298, 1, 1, 0.491492, 1, 1, 1, 1, 1, 1, 1, 0.997319, 1, 1, 0.995298, 1, 1, 1, 1, 1, 1, 1, 1, 1, 1, 1, 1, 1, 1, 1, 1, 1, 1, 1
379, 0.491147, 1, 0.996311, 1, 0.995205, 1, 1, 0.495345, 1, 1, 1, 1, 1, 1, 1, 0.996311, 1, 1, 0.995206, 1, 1, 1, 1, 1, 1, 1, 1, 1, 1, 1, 1, 1, 1, 1, 1, 1, 1, 1
380, 0.494645, 1, 0.995867, 1, 0.995039, 1, 1, 0.499175, 1, 1, 1, 1, 1, 1, 1, 0.995867, 1, 1, 0.995039, 1, 1, 1, 1, 1, 1, 1, 1, 1, 1, 1, 1, 1, 1, 1, 1, 1, 1, 1
381, 0.498626, 1, 0.996261, 1, 0.995053, 1, 1, 0.502981, 1, 1, 1, 1, 1, 1, 1, 0.996261, 1, 1, 0.995053, 1, 1, 1, 1, 1, 1, 1, 1, 1, 1, 1, 1, 1, 1, 1, 1, 1, 1, 1
382, 0.502929, 1, 0.99725, 1, 0.99516, 1, 1, 0.506763, 1, 1, 1, 1, 1, 1, 1, 0.99725, 1, 1, 0.995161, 1, 1, 1, 1, 1, 1, 1, 1, 1, 1, 1, 1, 1, 1, 1, 1, 1, 1, 1
383, 0.507209, 1, 0.998319, 1, 0.99518, 1, 1, 0.51052, 1, 1, 1, 1, 1, 1, 1, 0.998319, 1, 1, 0.995181, 1, 1, 1, 1, 1, 1, 1, 1, 1, 1, 1, 1, 1, 1, 1, 1, 1, 1, 1
384, 0.511272, 1, 0.999102, 1, 0.995091, 1, 1, 0.514254, 1, 1, 1, 1, 1, 1, 1, 0.999102, 1, 1, 0.995091, 1, 1, 1, 1, 1, 1, 1, 1, 1, 1, 1, 1, 1, 1, 1, 1, 1, 1, 1
385, 0.515167, 1, 0.999548, 1, 0.995048, 1, 1, 0.517964, 1, 1, 1, 1, 1, 1, 1, 0.999548, 1, 1, 0.995049, 1, 1, 1, 1, 1, 1, 1, 1, 1, 1, 1, 1, 1, 1, 1, 1, 1, 1, 1
386, 0.518955, 1, 0.999764, 1, 0.99507, 1, 1, 0.521649, 1, 1, 1, 1, 1, 1, 1, 0.999764, 1, 1, 0.99507, 1, 1, 1, 1, 1, 1, 1, 1, 1, 1, 1, 1, 1, 1, 1, 1, 1, 1, 1
387, 0.52264, 0.999999, 0.999852, 1, 0.995067, 1, 1, 0.52531, 1, 1, 1, 1, 1, 1, 1, 0.999852, 1, 1, 0.995067, 1, 1, 1, 1, 1, 1, 1, 1, 1, 1, 1, 1, 1, 1, 1, 1, 1, 1, 1
388, 0.526238, 0.999993, 0.999878, 1, 0.995008, 1, 1, 0.528946, 1, 1, 1, 1, 1, 1, 1, 0.999878, 1, 1, 0.995009, 1, 1, 1, 1, 1, 1, 1, 1, 1, 1, 1, 1, 1, 1, 1, 1, 1, 1, 1
389, 0.52979, 0.999971, 0.999885, 1, 0.994945, 1, 1, 0.532558, 1, 1, 1, 1, 1, 1, 1, 0.999885, 1, 1, 0.994945, 1, 1, 1, 1, 1, 1, 1, 1, 1, 1, 1, 1, 1, 1, 1, 1, 1, 1, 1
390, 0.53333, 0.99994, 0.999905, 1, 0.994902, 1, 1, 0.536146, 1, 1, 1, 1, 1, 1, 1, 0.999905, 1, 1, 0.994903, 1, 1, 1, 1, 1, 1, 1, 1, 1, 1, 1, 1, 1, 1, 1, 1, 1, 1, 1
391, 0.536871, 0.999918, 0.999942, 1, 0.99488, 1, 1, 0.539709, 1, 1, 1, 1, 1, 1, 1, 0.999942, 1, 1, 0.994881, 1, 1, 1, 1, 1, 1, 1, 1, 1, 1, 1, 1, 1, 1, 1, 1, 1, 1, 1
392, 0.540446, 0.999922, 0.999977, 1, 0.994941, 1, 1, 0.543249, 1, 1, 1, 1, 1, 1, 1, 0.999977, 1, 1, 0.994941, 1, 1, 1, 1, 1, 1, 1, 1, 1, 1, 1, 1, 1, 1, 1, 1, 1, 1, 1
393, 0.544045, 0.999938, 0.999996, 1, 0.995093, 1, 1, 0.546763, 1, 1, 1, 1, 1, 1, 1, 0.999996, 1, 1, 0.995093, 1, 1, 1, 1, 1, 1, 1, 1, 1, 1, 1, 1, 1, 1, 1, 1, 1, 1, 1
394, 0.547557, 0.999952, 1, 1, 0.995148, 1, 1, 0.550253, 1, 1, 1, 1, 1, 1, 1, 1, 1, 1, 0.995148, 1, 1, 1, 1, 1, 1, 1, 1, 1, 1, 1, 1, 1, 1, 1, 1, 1, 1, 1
395, 0.550942, 0.999887, 1, 1, 0.995098, 1, 1, 0.553719, 1, 1, 1, 1, 1, 1, 1, 1, 1, 1, 0.995098, 1, 1, 1, 1, 1, 1, 1, 1, 1, 1, 1, 1, 1, 1, 1, 1, 1, 1, 1
396, 0.55422, 0.999701, 1, 1, 0.995022, 1, 1, 0.55716, 1, 1, 1, 1, 1, 1, 1, 1, 1, 1, 0.995022, 1, 1, 1, 1, 1, 1, 1, 1, 1, 1, 1, 1, 1, 1, 1, 1, 1, 1, 1
397, 0.557471, 0.999478, 1, 1, 0.99498, 1, 1, 0.560577, 1, 1, 1, 1, 1, 1, 1, 1, 1, 1, 0.99498, 1, 1, 1, 1, 1, 1, 1, 1, 1, 1, 1, 1, 1, 1, 1, 1, 1, 1, 1
398, 0.560737, 0.999397, 0.999996, 1, 0.994874, 1, 1, 0.563969, 1, 1, 1, 1, 1, 1, 1, 0.999996, 1, 1, 0.994874, 1, 1, 1, 1, 1, 1, 1, 1, 1, 1, 1, 1, 1, 1, 1, 1, 1, 1, 1
399, 0.564039, 0.999444, 0.999975, 1, 0.994764, 1, 1, 0.567338, 1, 1, 1, 1, 1, 1, 1, 0.999975, 1, 1, 0.994764, 1, 1, 1, 1, 1, 1, 1, 1, 1, 1, 1, 1, 1, 1, 1, 1, 1, 1, 1
400, 0.56737, 0.999581, 0.999939, 1, 0.994675, 1, 1, 0.570681, 1, 1, 1, 1, 1, 1, 1, 0.999939, 1, 1, 0.994675, 1, 1, 1, 1, 1, 1, 1, 1, 1, 1, 1, 1, 1, 1, 1, 1, 1, 1, 1
401, 0.570797, 0.99971, 0.999907, 1, 0.994799, 1, 1, 0.574001, 1, 1, 1, 1, 1, 1, 1, 0.999907, 1, 1, 0.994799, 1, 1, 1, 1, 1, 1, 1, 1, 1, 1, 1, 1, 1, 1, 1, 1, 1, 1, 1
402, 0.574255, 0.999825, 0.999889, 1, 0.995016, 1, 1, 0.577296, 1, 1, 1, 1, 1, 1, 1, 0.999889, 1, 1, 0.995016, 1, 1, 1, 1, 1, 1, 1, 1, 1, 1, 1, 1, 1, 1, 1, 1, 1, 1, 1
403, 0.577625, 0.999898, 0.999884, 1, 0.995149, 1, 1, 0.580567, 1, 1, 1, 1, 1, 1, 1, 0.999884, 1, 1, 0.995149, 1, 1, 1, 1, 1, 1, 1, 1, 1, 1, 1, 1, 1, 1, 1, 1, 1, 1, 1
404, 0.580836, 0.999939, 0.999881, 1, 0.995078, 1, 1, 0.583814, 1, 1, 1, 1, 1, 1, 1, 0.999881, 1, 1, 0.995078, 1, 1, 1, 1, 1, 1, 1, 1, 1, 1, 1, 1, 1, 1, 1, 1, 1, 1, 1
405, 0.584049, 0.999964, 0.999887, 0.999999, 0.99506, 1, 1, 0.587037, 1, 1, 1, 1, 1, 1, 1, 0.999887, 1, 1, 0.99506, 1, 1, 1, 1, 1, 1, 1, 1, 1, 1, 1, 1, 1, 1, 1, 1, 1, 1, 1
406, 0.587335, 0.999981, 0.99991, 0.999991, 0.995202, 1, 1, 0.590236, 1, 1, 1, 1, 1, 1, 1, 0.99991, 1, 1, 0.995202, 1, 1, 1, 1, 1, 1, 1, 1, 1, 1, 1, 1, 1, 1, 1, 1, 1, 1, 1
407, 0.590527, 0.99999, 0.99995, 0.99997, 0.995229, 1, 1, 0.593411, 1, 1, 1, 1, 1, 1, 1, 0.99995, 1, 1, 0.995229, 1, 1, 1, 1, 1, 1, 1, 1, 1, 1, 1, 1, 1, 1, 1, 1, 1, 1, 1
408, 0.59353, 0.999994, 0.999983, 0.999938, 0.995003, 1, 1, 0.596562, 1, 1, 1, 1, 1, 1, 1, 0.999983, 1, 1, 0.995003, 1, 1, 1, 1, 1, 1, 1, 1, 1, 1, 1, 1, 1, 1, 1, 1, 1, 1, 1
409, 0.596496, 0.999996, 0.999999, 0.999908, 0.994773, 1, 1, 0.599689, 1, 1, 1, 1, 1, 1, 1, 0.999999, 1, 1, 0.994773, 1, 1, 1, 1, 1, 1, 1, 1, 1, 1, 1, 1, 1, 1, 1, 1, 1, 1, 1
410, 0.599586, 0.999997, 1, 0.999889, 0.994791, 1, 1, 0.602793, 1, 1, 1, 1, 1, 1, 1, 1, 1, 1, 0.994791, 1, 1, 1, 1, 1, 1, 1, 1, 1, 1, 1, 1, 1, 1, 1, 1, 1, 1, 1
411, 0.602747, 0.999994, 1, 0.99988, 0.994966, 1, 1, 0.605873, 1, 1, 1, 1, 1, 1, 1, 1, 1, 1, 0.994966, 1, 1, 1, 1, 1, 1, 1, 1, 1, 1, 1, 1, 1, 1, 1, 1, 1, 1, 1
412, 0.605791, 0.999984, 0.999999, 0.999881, 0.994982, 1, 1, 0.608929, 1, 1, 1, 1, 1, 1, 1, 0.999999, 1, 1, 0.994982, 1, 1, 1, 1, 1, 1, 1, 1, 1, 1, 1, 1, 1, 1, 1, 1, 1, 1, 1
413, 0.608712, 0.999958, 0.999988, 0.999885, 0.994859, 1, 1, 0.611962, 1, 1, 1, 1, 1, 1, 1, 0.999988, 1, 1, 0.994859, 1, 1, 1, 1, 1, 1, 1, 1, 1, 1, 1, 1, 1, 1, 1, 1, 1, 1, 1
414, 0.611686, 0.999893, 0.999962, 0.999877, 0.994924, 1, 1, 0.614972, 1, 1, 1, 1, 1, 1, 1, 0.999962, 1, 1, 0.994924, 1, 1, 1, 1, 1, 1, 1, 1, 1, 1, 1, 1, 1, 1, 1, 1, 1, 1, 1
415, 0.614716, 0.999733, 0.999928, 0.999855, 0.995235, 1, 1, 0.617958, 1, 1, 1, 1, 1, 1, 1, 0.999928, 1, 1, 0.995235, 1, 1, 1, 1, 1, 1, 1, 1, 1, 1, 1, 1, 1, 1, 1, 1, 1, 1, 1
416, 0.61773, 0.999573, 0.999898, 0.999826, 0.99556, 1, 1, 0.620921, 1, 1, 1, 1, 1, 1, 1, 0.999898, 1, 1, 0.99556, 1, 1, 1, 1, 1, 1, 1, 1, 1, 1, 1, 1, 1, 1, 1, 1, 1, 1, 1
